,Unnamed: 0,da0_area_max,da0_area_min,da0_slope_max,da0_slope_min,da0_peak_max,da0_peak_min,da1_area_max,da1_area_min,da1_slope_max,da1_slope_min,da1_peak_max,da1_peak_min,da2_area_max,da2_area_min,da2_slope_max,da2_slope_min,da2_peak_max,da2_peak_min,da3_area_max,da3_area_min,da3_slope_max,da3_slope_min,da3_peak_max,da3_peak_min,da4_area_max,da4_area_min,da4_slope_max,da4_slope_min,da4_peak_max,da4_peak_min,da5_area_max,da5_area_min,da5_slope_max,da5_slope_min,da5_peak_max,da5_peak_min,da6_area_max,da6_area_min,da6_slope_max,da6_slope_min,da6_peak_max,da6_peak_min,da7_area_max,da7_area_min,da7_slope_max,da7_slope_min,da7_peak_max,da7_peak_min,da8_area_max,da8_area_min,da8_slope_max,da8_slope_min,da8_peak_max,da8_peak_min,da9_area_max,da9_area_min,da9_slope_max,da9_slope_min,da9_peak_max,da9_peak_min,da10_area_max,da10_area_min,da10_slope_max,da10_slope_min,da10_peak_max,da10_peak_min,da11_area_max,da11_area_min,da11_slope_max,da11_slope_min,da11_peak_max,da11_peak_min,target
2166,2166,0.449094789,-0.205326942,0.032986812,-0.049219083,0.0,-0.371592316,0.416455632,-0.451589676,0.100351685,-0.031429238,0.416586206,0.0,0.584157076,-0.177390349,0.0342826,-0.061716434,0.173624848,-0.07512728,0.269272549,-0.298302023,0.056418879,-0.033985808,0.033023652,-0.117666367,0.05716131,-1.919544914,0.013694503,-0.021711242,0.024623326,-0.25309062,0.186888384,-2.039010151,0.062890795,-0.058996128,0.267746297,-0.073853356,0.659819426,-0.384852383,0.031726973,-0.054410954,0.052306016,-0.199760879,2.32861247,-0.290075578,0.023984997,-0.08836983,0.010171337,-0.406754815,0.144671581,-0.236858194,0.037778411,-0.055373751,0.0,-0.408938732,0.16471879,-0.242018929,0.0466066,-0.050178234,0.0,-0.313343914,0.160955687,-0.261747482,0.061281952,-0.045272677,0.0,-0.209034572,0.221858274,-0.230123422,0.065939278,-0.038355761,0.083605631,-0.06710443,0
2503,2503,3.191987577,-1.251803976,0.015281722,-0.057458532,0.219675538,-0.484111858,2.135012187,-0.83127803,0.027562261,-0.032309307,0.178870423,-0.223114058,1.489534476,-1.234839828,0.042953628,-0.091792651,0.189583356,-0.393336485,2.754107316,-0.079879804,0.02850972,-0.056518065,0.194653847,-0.18557215,0.431636786,-0.267263476,0.011104774,-0.025530978,0.093487207,-0.050434165,1.596989625,-1.005969166,0.02088933,-0.021578728,0.160214431,-0.209441915,0.93423649,-1.480264684,0.017249009,-0.066829753,0.417592831,-0.124935341,1.28085503,-0.30806182,0.001425349,-0.051614885,0.314112883,-0.074616935,1.210044028,-0.942174617,0.007479641,-0.07433748,0.201041941,-0.383629256,1.504864131,-0.838342739,0.005959968,-0.072477222,0.254419845,-0.35353724,1.382499448,-0.86306279,0.006318274,-0.074575007,0.23207243,-0.364407502,1.103679945,-2.283642908,0.042734694,-0.051475346,0.340457397,-0.215960147,0
485,485,0.915587689,-0.143254731,0.023543464,-0.037548546,0.099301826,-0.119491116,1.163914302,-0.183132617,0.009954779,-0.060545749,0.248036491,-0.036500026,0.28045962,-0.25384945,0.004791257,-0.006576692,0.041240034,-0.039463849,2.516821366,-0.874616606,0.051995472,-0.036447265,0.128485311,-0.387823043,0.462886689,-0.1686723,0.012366938,-0.016066628,0.008794795,-0.094909438,0.0,-0.048224745,0.003283166,0.0,0.000955061,-0.015008686,0.270009263,-0.26349226,0.066884087,-0.022262214,0.161104809,-0.121557143,0.364049471,-2.822060737,0.044342128,-0.001712136,0.0478102,-0.46952367,3.242238585,-0.170820672,0.01221368,-0.044143063,0.48803435,-0.032533147,0.490975142,-0.220646758,0.01050164,-0.01247666,0.067123397,-0.049965982,0.470387572,-0.306161615,0.061391511,-0.017975747,0.063407749,-0.09375631,0.50338244,-0.394484157,0.060238989,-0.02077951,0.033966512,-0.170952857,0
613,613,0.358903902,-0.094217013,0.107198532,-0.077607166,0.202604285,-0.140487586,0.255084477,-1.88477245,0.107925646,-0.080695642,0.219662434,-0.326158227,0.429400672,-2.637912291,0.052907431,-0.049613094,0.064329432,-0.414612094,0.053592702,-2.998099401,0.11509821,-0.086392254,0.172942529,-0.448119812,0.97353766,-0.169501825,0.068510515,-0.043208538,0.233414234,-0.104571183,0.526161913,-1.355687343,0.046557651,-0.056682469,0.137421325,-0.357732824,0.921917236,-2.430738445,0.047726712,-0.04920036,0.102590169,-0.470370406,2.246860629,-0.36740814,0.047807925,-0.044832492,0.283198804,-0.113009891,2.215429262,-0.354301976,0.072036852,-0.07408516,0.277853411,-0.155430106,2.19661102,-0.339892593,0.04247696,-0.048042857,0.292711213,-0.112297725,1.959247724,-0.915531284,0.040341729,-0.045398806,0.279866922,-0.14389176,2.243061673,-0.298499669,0.053577327,-0.056913753,0.278772911,-0.121891582,0
885,885,0.061018877,-0.044144341,0.005709033,-0.0023204,0.006920209,-0.024943145,0.311079545,-0.247333959,0.03034437,-0.028879862,0.046605707,-0.067287082,0.586574554,-1.074668959,0.092580353,-0.092386141,0.150126102,-0.261328518,0.956379766,-0.536402569,0.017216635,-0.014847674,0.135654765,-0.080712712,0.201751725,-0.38007276,0.01060295,-0.014943278,0.052272039,-0.036186669,0.393945078,-0.225628302,0.04679768,-0.041230515,0.061417778,-0.102625374,0.805011382,-0.379844908,0.012689358,-0.025326198,0.068399096,-0.110500527,1.580577813,-0.88814537,0.02435728,-0.039635561,0.296698189,-0.073442376,1.102922879,-0.267102031,0.013701164,-0.011008198,0.185166486,-0.020752969,0.658717712,-0.846470863,0.045587279,-0.046402043,0.159291698,-0.105532701,0.714722203,-0.548051593,0.071053899,-0.07842683,0.071352426,-0.267047088,0.461568953,-0.398987071,0.054024487,-0.057935486,0.079690991,-0.105442594,0
1264,1264,1.260839169,-0.439084247,0.075370914,-0.033377349,0.041316669,-0.257453708,1.866595742,-0.133539318,0.069285028,-0.085324142,0.480898797,-0.011748644,1.01780415,-0.58545192,0.059840917,-0.08502987,0.094947679,-0.280079215,2.149037251,-0.6101752,0.093222655,-0.052460909,0.3697922,-0.286708123,0.089393162,-0.119607804,0.035742104,-0.064710924,0.010408284,-0.115809022,1.245661759,-0.13611357,0.067475055,-0.09068151,0.244234165,-0.090476868,0.467894638,-0.892552678,0.118011016,-0.044229364,0.381662531,-0.040715509,0.237118609,-0.371383376,0.013744187,-0.027827101,0.048412957,-0.063352922,0.632861427,-0.352762326,0.015309466,-0.019502562,0.098480728,-0.070807687,1.08996542,-0.327640276,0.029122083,-0.023228722,0.036652824,-0.195772906,0.35943403,-0.005593426,0.063305312,-0.08814909,0.300277064,0.0,0.565952881,-0.052035168,0.071954516,-0.07933978,0.258011192,0.0,0
1799,1799,0.070587294,-0.447695374,0.038742649,-0.046969776,0.06475076,-0.083212307,1.134546069,-0.439925269,0.042465502,-0.066919095,0.142577322,-0.122386665,0.220420394,-1.126617951,0.033893731,-0.052557713,0.073411845,-0.173435853,0.232942131,-0.173799789,0.052672705,-0.0673371,0.086088236,-0.109461798,0.048064795,-1.890268318,0.031112528,-0.044815566,0.051437903,-0.306437501,1.178380085,-0.884435058,0.032709648,-0.067229048,0.172514215,-0.147709611,0.839494587,-1.636259589,0.03601404,-0.066649447,0.121158907,-0.26057602,2.784342827,-1.869424169,0.03614861,-0.071817688,0.454715516,-0.347022795,0.214391616,-0.417514603,0.067535257,-0.077559134,0.083416913,-0.206607226,0.84620202,-0.346199732,0.03924657,-0.049211474,0.170689679,-0.112682301,1.535178861,-0.459091401,0.066285663,-0.116465876,0.314867079,-0.129312751,1.625951957,-0.269039515,0.060017847,-0.090637595,0.233267054,-0.131579792,0
1883,1883,0.310370553,-0.195264275,0.037755064,-0.021073671,0.078981144,-0.06431721,0.279577483,-0.145409456,0.017493363,-0.009468984,0.067127501,-0.042772818,3.257080986,-0.177810286,0.015586032,-0.037906682,0.459500349,-0.062752179,0.33878879,-3.595899892,0.027038653,-0.066430325,0.097331629,-0.48550145,0.094314753,-0.891269722,0.062567106,-0.046551315,0.104386986,-0.104650822,0.341116554,-0.210796842,0.014566434,-0.011668627,0.052500816,-0.048287347,0.782907759,-0.249002977,0.015464445,-0.006026911,0.090951598,-0.065286721,0.066405598,-0.102579342,0.002643965,-0.00176235,0.015471511,-0.013763217,0.0,-2.021799317,0.02289489,0.0,0.0,-0.316638777,0.340892314,-0.105045583,0.029598018,-0.009724465,0.136610708,-0.046509996,0.25102657,-0.475891055,0.029390882,-0.004555143,0.062157264,-0.143014297,1.503879939,-0.253825898,0.044297735,-0.012753708,0.27723966,-0.086659715,0
322,322,0.2197603,-0.016421349,0.015641766,-0.005980578,0.020540067,-0.037998687,0.303085741,-0.019252364,0.0,-0.088891058,0.123299857,-0.423914804,1.007449261,-0.14951172,0.062546043,-0.068013736,0.0,-0.397115611,1.601219513,-0.13828327,0.019852217,-0.055620289,0.082497909,-0.269184439,1.242793145,-0.061504827,0.024228335,-0.013683991,0.143411323,-0.056671887,0.4624896,-0.267285862,0.0,-0.079614529,0.083541097,-0.431350086,0.560390297,-0.214085428,0.042218071,-0.067173505,0.0,-0.479192791,1.044402389,-0.784722605,0.023111945,-0.067685389,0.0,-0.513712567,2.864167042,-0.363943789,0.02579802,-0.061045496,0.048287786,-0.474048822,1.283054344,-1.835325401,0.024320465,-0.070672826,0.158108422,-0.369848869,0.479649519,-0.196440233,0.057553977,-0.117750532,0.062374272,-0.310161605,0.080593543,-0.386479892,0.081735553,-0.089829073,0.127278327,-0.154342993,0
905,905,1.085455059,-1.726229231,0.020994572,-0.015821486,0.278633476,-0.131417996,1.930231271,-0.067848909,0.032367745,-0.057829982,0.463150937,0.0,1.301117876,-1.947007966,0.008210615,-0.033164379,0.377264065,-0.113404759,0.609960622,-0.57655227,0.018499895,-0.01858885,0.100774788,-0.102009409,0.628030268,-1.869145473,0.026519395,-0.028063645,0.327939723,-0.044472062,1.253926801,-1.844098879,0.017130366,-0.03300342,0.469650916,0.0,1.074194275,-2.373121815,0.014862472,-0.026538976,0.463566486,-0.027179193,2.462956287,-0.893154045,0.040742364,-0.052395185,0.438709043,-0.047530473,1.461791065,-0.889148496,0.044135888,-0.021247041,0.409310723,0.0,0.0,-3.014460202,0.038965847,0.0,0.0,-0.488101567,1.933976689,-1.444158467,0.036773651,-0.024002792,0.516902999,0.0,1.73004155,-1.937605886,0.041626343,-0.029663021,0.571738053,0.0,0
2022,2022,0.083570165,-0.098684908,0.006330301,-0.006266749,0.009586076,-0.025784281,0.614606342,-0.904337143,0.008657222,-0.014469535,0.125938464,-0.092131225,0.589756525,-1.917646824,0.040258218,-0.029728549,0.167730125,-0.206015446,0.278659465,0.0,0.001465934,-0.002356409,0.037529595,0.0,1.519466271,-0.287975661,0.036364898,-0.017958882,0.194296849,-0.123314896,0.716894194,-2.14846426,0.039650546,-0.028353496,0.220211896,-0.172208208,1.725382123,-0.655594841,0.035607079,-0.01605562,0.158343997,-0.17193191,0.942730606,-1.663437699,0.053426754,-0.068208148,0.219562245,-0.192136812,0.932418284,-0.99042556,0.038780047,-0.039164107,0.0891644,-0.208259822,0.237921185,-1.17246268,0.002202295,-0.026868298,0.153082317,-0.139993159,0.815965431,-1.120500092,0.053803548,-0.024987437,0.195249493,-0.190513342,0.173266633,-1.223497172,0.028989651,-0.039904979,0.073597675,-0.20069661,0
105,105,0.042196175,-2.252275396,0.009339902,-0.016840063,0.03001591,-0.319244605,0.4357502,-0.195531738,0.010709719,-0.002016095,0.018746091,-0.078230668,0.0,-2.619450005,0.000792606,-0.030282741,0.0,-0.396916491,0.251996481,-0.699036305,0.080763396,-5.01e-05,0.177245067,-0.137491026,0.120097161,-2.517018273,0.003873743,-0.024397602,0.021641872,-0.371454781,0.235658913,-2.757110728,0.010933915,-0.036921,0.034657022,-0.430841581,1.252161165,-0.16610768,0.056209321,-0.05172516,0.212081271,-0.054489164,1.209432292,-0.571071196,0.078793261,-0.071351286,0.269318188,-0.041027848,1.082879164,-0.942303592,0.080279816,-0.062156639,0.250969189,-0.07447288,0.764686668,-1.289805887,0.084760337,-0.084616878,0.312864094,-0.070760279,2.37952696,-0.272927302,0.113576961,-0.069422878,0.326846099,-0.193863045,1.895843325,-0.324198238,0.094448775,-0.049768251,0.273045537,-0.207041982,0
2210,2210,1.735283374,-0.102768465,0.038119651,-0.042526537,0.288651591,0.0,0.542718781,-0.311761202,0.073593687,-0.019402979,0.23407309,-0.074963462,1.551235501,-0.08190628,0.032039162,-0.039155568,0.318232068,0.0,1.943807884,-0.51593428,0.044405279,-0.041350256,0.296350396,-0.105293626,1.672521732,-0.083478995,0.035143257,-0.040814176,0.30683296,0.0,1.103204068,-0.069498992,0.025781925,-0.037030774,0.319447902,0.0,0.325893382,-0.43704034,0.065628439,-0.09542877,0.214042178,-0.060084387,0.228410275,-1.817177855,0.121831855,-0.000430786,0.24336661,-0.315923544,0.235474594,-1.57606821,0.010541946,-0.024920551,0.149012796,-0.166273553,0.499391476,-2.116921906,0.095468229,-0.079135571,0.336320623,-0.250076775,0.769981138,-1.135699764,0.049191011,-0.050451658,0.161127272,-0.180470913,0.778565669,-1.598397387,0.012981603,-0.021225282,0.316155264,-0.005241563,0
2849,2849,0.391340742,-0.129924905,0.018879804,-0.007965003,0.009364573,-0.104525626,0.493506116,-0.241690702,0.018356335,-0.017699218,0.036195645,-0.086775688,0.391577672,-0.919233238,0.086854574,-0.072608015,0.334806135,-0.146962368,2.268929755,-0.136871245,0.071395106,-0.017194605,0.004065716,-0.447258089,1.214118141,-0.41752404,0.085282688,-0.074938569,0.285536872,-0.09336661,0.724147392,-0.775340494,0.092159825,-0.019418883,0.377696921,-0.050751629,1.446072668,-1.777024876,0.046541679,-0.081336379,0.085949512,-0.45314911,0.157139695,-0.143237281,0.012487244,-0.013445169,0.027844218,-0.051463041,0.360481699,-0.656300704,0.018119857,-0.025004475,0.121058283,-0.112466822,0.152439174,-0.637562573,0.033698668,-0.067492559,0.034370209,-0.221480848,0.181298476,-0.158291996,0.014997267,-0.007507422,0.020392163,-0.056342945,1.161997605,-0.705685236,0.076221316,-0.046549755,0.287307134,-0.086775361,0
151,151,2.047346622,-0.888316395,0.025948565,-0.029853825,0.256077068,-0.170999152,0.328190029,-1.181423526,0.00817222,-0.06249818,0.014036522,-0.447534302,0.606360869,-0.070373687,0.001763467,-0.061372752,0.014499619,-0.383472616,0.510025613,-0.333106853,0.009615814,-0.071868857,0.041002631,-0.336976625,0.713776393,-0.535810332,0.0,-0.07306879,0.028349675,-0.377805478,0.318803826,-0.581685186,0.0,-0.058215662,0.008635767,-0.40939433,0.701433496,-0.61775393,0.020424896,-0.048088622,0.0,-0.326169482,0.255889242,-0.815769043,0.013718478,-0.060845713,0.002902854,-0.368300122,0.257651594,-0.323267467,0.0,-0.05218197,0.0,-0.286677107,0.278470738,-0.583321365,0.006683029,-0.047510054,0.0,-0.295010758,0.64023761,-0.732524538,0.012913532,-0.06519359,0.025499732,-0.332464004,1.134158963,-0.208737596,0.010366208,-0.038330587,0.124623348,-0.108099778,0
176,176,1.380403047,-0.286942398,0.040671258,-0.027403217,0.232472958,-0.015308913,1.464553758,-0.36435811,0.062825785,-0.030659628,0.17991849,-0.115315824,0.629344131,-0.151594466,0.009650692,-0.030775181,0.063736801,-0.078138921,1.194958663,-0.822821567,0.049972464,-0.063054267,0.183971026,-0.26449673,1.349633033,-0.131648706,0.020609444,-0.024043404,0.127868748,-0.117842679,0.735675889,-0.283157314,0.046294854,-0.022189382,0.108152472,-0.058220962,0.235305964,-0.595976453,0.033664435,-0.0263561,0.149686818,-0.014534754,2.941906066,-0.713770986,0.046878399,-0.0338248,0.312802617,-0.307599808,1.331794615,-0.318563569,0.047444896,-0.024465218,0.16934439,-0.077743874,1.357100317,-0.073895418,0.05064669,-0.029687899,0.141945613,-0.078568665,1.044234276,-0.252829268,0.069428534,-0.034282917,0.124361361,-0.065419811,1.121800039,-0.172907266,0.051358344,-0.020300788,0.129020755,-0.058950638,0
578,578,0.605131046,-0.001368031,0.028849652,-0.029702773,0.107269145,-0.035862423,0.023009603,-0.285294098,0.013425873,-0.023707276,0.02706712,-0.064837972,0.058790204,-0.616175883,0.013593681,-0.021650574,0.035214979,-0.094088918,0.472894264,-0.109039881,0.011733285,-0.015205797,0.04704239,-0.060025669,1.341257278,-0.275984212,0.056588531,-0.053529544,0.221984006,-0.081779801,0.042902168,-0.427561194,0.013220948,-0.023030564,0.031311237,-0.077460006,0.3072664,-0.13055592,0.024776313,-0.009158822,0.030514894,-0.05610261,0.196870687,-0.100703705,0.059366354,-0.006504153,0.08530545,-0.176517578,0.309340263,-0.079300246,0.060954151,-0.027164959,0.09389612,-0.196878695,0.04168367,-0.044796207,0.029248773,-0.028112397,0.020725206,-0.061424779,0.346685197,0.0,0.018385936,-0.020840894,0.060607233,-0.020882734,0.504494711,0.0,0.021290231,-0.018605524,0.078569245,-0.011224027,0
2,2,0.733808771,-0.181056345,0.030798976,-0.011149505,0.070426926,-0.103277134,0.275385402,-0.132797883,0.023626217,-0.012801216,0.061687247,-0.050876001,0.146816352,-0.170806913,0.024360217,-0.014773779,0.063772597,-0.03136488,0.243450042,-0.553826324,0.025045559,-0.012702104,0.051192885,-0.105231378,0.299072632,-0.442747056,0.03086515,-0.019103544,0.074351555,-0.07208915,0.235498694,-0.139166624,0.021886183,-0.013510176,0.063894341,-0.04072035,1.871319518,-1.663279055,0.044842733,-0.026981795,0.233357849,-0.303851994,0.644429628,-0.222695921,0.015030203,-0.012965302,0.115044601,-0.030977303,0.108753693,-0.112473377,0.014614829,-0.007251412,0.032890239,-0.035881102,3.154065729,-2.821720793,0.037583595,-0.100320783,0.399777073,-0.406254579,0.658933502,-0.110680007,0.022094203,-0.005726213,0.060370216,-0.112087387,0.273944532,-0.740844756,0.029270651,-0.007336893,0.087878258,-0.123493803,0
2141,2141,0.312797322,-0.255100714,0.014862511,-0.013853616,0.040464903,-0.062921222,0.076863241,-0.153726482,0.010959926,-0.010698868,0.023979152,-0.037550134,0.158536199,-0.297733731,0.010790126,-0.011122885,0.069500792,-0.031955144,0.042475475,-0.144665899,0.024149886,-0.037458026,0.05324675,-0.06223281,1.026149808,-0.489962254,0.036868526,-0.016192536,0.107915702,-0.164146348,0.062314348,-0.216755522,0.011758108,-0.010943852,0.042387735,-0.024384448,0.837858874,-1.247658525,0.066037939,-0.021073504,0.19885836,-0.268962775,0.6487771,-0.162092967,0.016784304,-0.013433599,0.113461389,-0.019834791,1.502310518,-3.182916216,0.028729823,-0.019892274,0.622675546,-0.009481578,0.512182413,-0.010765953,0.01300162,-0.01411838,0.066446982,-0.03787102,1.873209556,-2.224594427,0.039004484,-0.046789589,0.255582045,-0.335984215,0.176128916,-3.353207771,0.065487199,-0.023978814,0.45771632,-0.089117584,0
814,814,0.761898085,-0.513309242,0.061007732,-0.023048223,0.490902161,0.0,0.239708192,-0.217796657,0.019718061,-0.094107333,0.0,-0.355860875,0.57053431,-0.290865454,0.129109458,-0.026775454,0.207244239,-0.447918688,0.176218774,-0.434379601,0.023828788,-0.035271158,0.040181901,-0.095314492,0.909533809,-0.084585252,0.034162765,-0.041699825,0.170564611,-0.038606081,0.134531712,-0.187063993,0.014561405,-0.077869068,0.0,-0.262092312,0.415537889,-0.229068241,0.007519511,-0.007358299,0.05374699,-0.045268147,0.073495964,-0.295682051,0.014105626,-0.00961053,0.035677038,-0.051253394,0.101659946,-0.116205363,0.009942627,-0.002732221,0.028383834,-0.022689589,0.307147103,-0.075835228,0.009482848,-0.002640149,0.04266081,-0.02918252,0.178579097,-0.229326725,0.031264273,-0.100130775,0.0,-0.371913945,1.967633869,-0.351645951,0.046251009,-0.032652365,0.061939208,-0.325674474,0
1406,1406,0.335054211,-0.17927435,0.020959317,-0.018490399,0.076795017,-0.050052488,0.101149117,-0.091965307,0.020025394,-0.022148562,0.032983538,-0.051236226,0.050066107,-0.132266115,0.018418145,-0.020702422,0.018758866,-0.061387525,0.3240029,-0.16200145,0.031922888,-0.061551952,0.092171995,-0.084713789,0.397565442,-0.790432406,0.08154032,-0.05388156,0.238928309,-0.186474188,0.003469434,-0.137887178,0.018850492,-0.021313178,0.023916034,-0.057279726,0.929858512,-1.032496817,0.088838185,-0.045416426,0.2623348,-0.033371165,1.08948814,-0.249765923,0.016938164,-0.022094225,0.178150575,-0.028127302,0.160681109,-0.176132561,0.013812052,-0.009847953,0.066693811,-0.008190203,0.125444834,-0.136250721,0.016501648,-0.012891584,0.062420984,-0.009719995,0.269112272,-0.249370495,0.023793907,-0.013403863,0.053496698,-0.054471538,0.310976525,-0.513311394,0.019034902,-0.018673958,0.059827186,-0.090054263,0
1327,1327,0.439715169,-0.453179744,0.049633796,-0.094596871,0.202447002,-0.080208639,0.017766201,-0.462675329,0.047620398,-0.061928179,0.142177183,-0.030019662,0.721429822,-0.446664071,0.050384791,-0.064065829,0.173571834,-0.123195686,1.012793318,-0.438514055,0.044002148,-0.067359671,0.18832195,-0.147657023,1.082017452,-0.12698545,0.122198282,-0.083718515,0.198803484,-0.408339824,0.78739501,-0.157893112,0.025682431,-0.039387752,0.171953081,-0.083480843,0.837744399,-0.430225933,0.053515189,-0.064572103,0.175688064,-0.135777163,0.175754121,-0.466323773,0.053451146,-0.029262646,0.186655887,-0.139038352,1.09956407,-0.251047112,0.036941667,-0.059390128,0.189682943,-0.19997721,2.100461643,-0.034668393,0.046020097,-0.073264196,0.228605028,-0.174479221,0.521726328,-0.702218611,0.024088199,-0.026500335,0.12437272,-0.09931358,0.108812656,-0.335872152,0.077205752,-0.124171593,0.258587293,-0.06518504,0
2011,2011,1.381161956,-0.273031525,0.013135523,-0.013966172,0.151932869,-0.073342813,0.517441906,-0.336836331,0.054627712,-0.035627859,0.299039829,-0.004105,0.445544351,-0.447856884,0.021349024,-0.034969798,0.114650885,-0.061463305,3.288123476,-1.205849015,0.099506563,-0.101886887,0.257691484,-0.54227319,3.535784882,-0.313364098,0.004582829,-0.031088782,0.566979471,-0.03315773,0.282140118,-0.329646415,0.032607424,-0.02711213,0.172674236,-0.025401326,0.0,-3.104251698,0.036136565,0.0,0.0,-0.481037978,0.315978597,-0.052506296,0.003730312,-0.001807276,0.035924816,-0.018005068,0.233394671,-3.324347367,0.02659114,-0.052879439,0.121494144,-0.463517996,2.770740132,-0.005339755,0.092542229,-0.040745665,0.331136663,-0.15450721,0.085669612,-0.913169888,0.017809515,-0.014016494,0.014303632,-0.146535798,0.542394495,-0.295379085,0.045470009,-0.025149,0.0,-0.28729119,0
3574,3574,0.174158249,-0.352988362,0.02161278,-0.006462195,0.049677598,-0.061924675,2.292787419,-0.051028318,0.034726175,-0.085315583,0.091677815,-0.322830042,2.160899883,-0.12137871,0.026049357,-0.079458427,0.076917483,-0.308595247,0.118339962,-0.020602208,0.013114545,-0.006231767,0.01162775,-0.038022593,0.166640267,-0.073318742,0.0,-0.031013361,0.150520764,-0.020566572,2.240715986,-0.131709826,0.033215749,-0.082516222,0.088208428,-0.316336482,0.0,0.0,0.0,0.0,0.0,0.0,0.0,0.0,0.0,0.0,0.0,0.0,0.0,0.0,0.0,0.0,0.0,0.0,0.0,0.0,0.0,0.0,0.0,0.0,0.0,0.0,0.0,0.0,0.0,0.0,0.0,0.0,0.0,0.0,0.0,0.0,1
2043,2043,0.231770827,-0.279562333,0.012118906,-0.00723268,0.046111072,-0.041283792,0.312394325,-0.291698363,0.079823463,-0.063097197,0.185967022,-0.085756025,0.0,-1.245108201,0.038493611,-0.060087391,0.031926111,-0.221871584,0.391871504,-0.327189336,0.045551268,-0.071356314,0.0,-0.637281977,0.260585286,-0.130292643,0.008656793,-0.008851768,0.020301286,-0.051811449,0.224071414,-0.515414832,0.045979754,-0.058438338,0.120001617,-0.120655554,1.599557886,-0.971615306,0.01668795,-0.058950281,0.191658319,-0.266158671,0.654609901,-0.367173419,0.004601148,-0.047776554,0.061942379,-0.305360616,1.480541758,-0.459705425,0.014585653,-0.054618644,0.239258425,-0.20275871,1.386004809,-0.70257429,0.035445955,-0.022261514,0.181234599,-0.210444997,0.885043381,-2.772957221,0.016881584,-0.030178457,0.352113411,-0.191830391,0.286202597,-2.055539138,0.036080326,-0.052871266,0.194231168,-0.202846806,0
3650,3650,0.447046299,-0.481524223,0.023159345,-0.014015579,0.020946275,-0.151198474,0.97345969,-1.94691938,0.038924874,-0.030962516,0.264302242,-0.245070872,0.895944841,-1.791889682,0.030678091,-0.045710842,0.258069351,-0.193764019,0.0,-3.114113615,0.044860858,-0.029137087,0.265182658,-0.292463466,1.602995645,-0.985647994,0.02948604,-0.029745239,0.25534377,-0.152892939,0.934778249,-1.869556499,0.034720466,-0.043050238,0.260792544,-0.219915333,0.401331848,-0.689964001,0.024608947,-0.035945315,0.164258482,-0.059102582,0.121316431,-0.206516494,0.030673729,-0.068797077,0.0,-0.302623991,0.100672192,-0.20816134,0.007415921,-0.071249991,0.0,-0.337366866,0.649394543,-0.545289802,0.025613769,-0.020943314,0.208539851,-0.011821738,1.992132144,-0.592382029,0.098927117,-0.01408891,0.49969808,-0.014452475,0.428297108,-0.514097827,0.088184059,-0.010318874,0.437730295,0.0,2
1855,1855,0.407712648,-0.232758402,0.036597321,-0.015100381,0.141248009,-0.096122697,1.108360377,-0.591442791,0.062462513,-0.049877146,0.449962181,0.0,0.826153781,-0.369410377,0.032434625,-0.0537889,0.183739439,-0.088441039,0.623397395,-2.950001896,0.045143713,-0.018232031,0.058570754,-0.438166431,1.109436119,-0.339511622,0.030187107,-0.084411749,0.015297976,-0.278110689,0.807902742,-0.393712744,0.046255602,-0.037275221,0.311349056,-0.002472038,0.760758361,-0.604402509,0.049153662,-0.048478515,0.352772789,-0.02649555,0.132816303,-0.264815203,0.03556912,-0.05890428,0.0,-0.218697105,0.26316528,-0.559651883,0.008785531,-0.088703487,0.0,-0.403266798,0.568960488,-0.124120687,0.041025585,-0.010988877,0.163376138,-0.057109488,0.536250126,-0.321979765,0.040619307,-0.009806155,0.161191301,-0.09276764,1.454749625,-2.7784964,0.106054574,-0.085530735,0.655493867,-0.064879452,0
2787,2787,2.707605174,-0.357942229,0.08682357,-0.053983007,0.392202819,-0.108419129,0.109665076,-0.064897061,0.010961666,-0.000852078,0.023572287,-0.042237209,3.463151721,-1.758790589,0.033722592,-0.09885656,0.098044171,-0.707931205,1.46134118,-0.152846331,0.008295492,-0.055330159,0.040877331,-0.316456016,1.045058102,-0.192271214,0.013707932,-0.086897788,0.165913005,-0.066581876,0.132253811,-0.106464104,0.013535315,-0.000969223,0.031414271,-0.04094231,1.222135107,-0.156368053,0.041340164,-0.043482979,0.0,-0.291563471,0.8558066,-0.218888476,0.085873769,-0.026335277,0.060041374,-0.241212827,0.579015055,-0.098981684,0.022443505,-0.035354401,0.091794814,-0.098221717,0.432184743,-0.581957789,0.027761358,-0.010196938,0.111406114,-0.109534276,0.477022416,-0.199126935,0.015836114,-0.006253593,0.077809062,-0.046996409,0.410969699,-0.091386361,0.017351118,-0.007929257,0.072396035,-0.02367422,0
2863,2863,0.991897081,-0.106099696,0.038502769,-0.008456397,0.211153573,-0.081091528,0.70306369,-0.343186254,0.048209055,-0.012716193,0.229789261,-0.025233934,0.465308646,-0.304046743,0.033229525,-0.02410482,0.188912514,-0.017786524,0.131880686,-0.359196573,0.066279364,-0.047629681,0.198692824,-0.070178175,1.895800848,-1.265873761,0.124257251,-0.277555442,0.473657971,-0.379873933,0.407400484,-0.36420777,0.046511271,-0.016056131,0.21167104,-0.045697929,0.445137734,-0.600507835,0.019095694,-0.067145394,0.0,-0.304778723,0.482723029,-0.087978564,0.019479592,-0.009317959,0.103941691,-0.016030435,0.353333284,-0.260440956,0.033586236,-0.010179976,0.149285461,-0.031074218,0.62628042,-0.869890264,0.038399221,-0.010499688,0.152035469,-0.150962978,0.43106526,-0.976921338,0.075474475,-0.086608011,0.239087138,-0.142027051,0.732576782,-0.238013315,0.049076514,-0.053804862,0.061778926,-0.179278371,0
1366,1366,0.282956825,-1.766506812,0.052139579,-0.048683438,0.241689763,-0.231825324,1.077505231,-0.323052995,0.024062542,-0.015904031,0.144266218,-0.071766965,1.237346408,-0.917861094,0.017320097,-0.045401598,0.324415072,-0.034134883,0.675554311,-0.544535323,0.023909379,-0.016257826,0.106317428,-0.09252749,0.341739753,-0.730236947,0.06016404,-0.064797898,0.280164987,-0.158556862,1.553857111,-0.241032401,0.020987594,-0.024661117,0.161822051,-0.095019358,1.882843185,-2.038310598,0.0450207,-0.052103669,0.292504049,-0.302468347,0.864652332,-0.092532368,0.013337781,-0.010025666,0.148071339,-0.015743604,1.108493303,-0.086757956,0.020512791,-0.023525011,0.112446505,-0.095296112,2.508093018,-2.154702986,0.031736924,-0.055333199,0.393055341,-0.333844734,0.476849046,-1.909060252,0.028456202,-0.015019571,0.177994721,-0.155760479,0.428979465,-0.171262553,0.019009126,-0.017250129,0.042095677,-0.07689146,0
3038,3038,0.55706602,-0.249619576,0.038858865,-0.043738835,0.0,-0.392188897,0.889968253,-0.435108198,0.102846487,-0.074105958,0.547173684,0.0,0.123481411,-0.190557618,0.015323351,-0.007188585,0.051897686,-0.050058238,0.272372721,-0.075157835,0.009031471,-0.020970634,0.08893573,-0.025613121,0.627179481,-0.322715604,0.027184665,-0.04530772,0.0,-0.51664264,0.39962045,-0.213410843,0.024987754,-0.016275861,0.076486563,-0.110964482,0.092225152,-0.057492394,0.005455186,-0.00500359,0.022271258,-0.015598658,0.323758935,-0.498953899,0.013167393,-0.008977233,0.079267239,-0.070073512,0.893686197,-0.226303243,0.033888682,-0.061217534,0.0,-0.481505107,0.284844282,-1.11007196,0.043658608,-0.043203791,0.0,-0.339621809,0.30796263,-0.41781808,0.061771185,-0.046372644,0.0,-0.276922273,0.401635745,-0.430632242,0.049228394,-0.036272885,0.142463432,-0.047282855,0
1744,1744,0.131308025,-0.055256082,0.016555511,-0.004313278,0.019997543,-0.042662269,0.301864732,-0.094534925,0.009490454,0.0,0.037119306,-0.052707082,0.657556458,-0.373862391,0.0,-0.033838033,0.141461529,-0.1026681,2.544825145,-1.239341304,0.042379212,-0.038313281,0.136225015,-0.409819606,0.241319851,-0.064220865,0.01295325,-0.009933331,0.032903461,-0.022849954,0.311684547,-0.204877049,0.013093289,-0.000317337,0.037706265,-0.079014955,0.757896308,-1.515792616,0.0,-0.047438431,0.212452763,-0.291750656,0.650823409,-1.301646817,0.026878001,-0.040355399,0.204089878,-0.166727157,0.338787048,-0.677574097,0.022389413,-0.018809633,0.124821835,-0.067387516,0.638033379,-0.473167516,0.017387718,-0.026064392,0.158806556,-0.02780992,0.05786905,-0.115566562,0.008241419,-0.00436387,0.013980236,-0.02329284,0.102861777,-0.287509477,0.011823413,-0.004322294,0.034851532,-0.042701872,0
496,496,0.290441397,-0.128164473,0.073077472,-0.049815682,0.126779912,-0.065086925,0.243127787,-0.367457638,0.081104606,-0.061031387,0.170933685,-0.098536737,1.224331011,-0.605039902,0.12206429,-0.093266528,0.234312733,-0.145579488,0.022046859,-0.41032776,0.069585096,-0.054202722,0.155151764,-0.076031884,0.769361608,-0.097889801,0.046496446,-0.04625916,0.166544116,-0.085594361,0.326011923,-0.261333439,0.088134346,-0.069798914,0.186059277,-0.107328418,0.711563428,-1.782575285,0.056230665,-0.044668838,0.24347147,-0.210243411,0.9453694,-0.43019154,0.069064007,-0.069274288,0.255543639,-0.048559464,0.321297203,-0.642594405,0.068435508,-0.070252885,0.186436961,-0.099846808,0.901918276,-0.627057773,0.055391412,-0.051630922,0.18534065,-0.139511302,1.40078746,-0.444896385,0.048703509,-0.05743057,0.247966664,-0.092014624,0.510103051,-0.701251948,0.06577027,-0.059190603,0.205110166,-0.0593824,0
3231,3231,0.049867113,-0.295894521,0.014896855,-0.006891621,0.004627546,-0.072759855,0.514576224,-0.44540923,0.017282972,-0.000874409,0.07839412,-0.109962729,3.080306501,-0.566621366,0.115412245,-0.061744522,0.399895614,-0.215120293,1.179742692,-0.027818209,0.074698145,-0.044213136,0.0,-0.579994959,0.579721491,-0.576380404,0.097187822,-0.016843714,0.195803897,-0.260685223,0.94305616,-0.828165483,0.020985852,-0.107117229,0.364316463,-0.279852575,2.518685911,-0.530880752,0.014237995,-0.029984876,0.321334816,-0.147876063,2.085163827,-2.216630716,0.081439752,-0.054120478,0.335749693,-0.391811469,0.0,0.0,0.0,0.0,0.0,0.0,2.658634457,-0.837665816,0.04367796,-0.109841398,0.220169469,-0.423717115,0.736883715,-0.00926877,0.106954896,-0.111168065,0.182953583,-0.321612075,3.369643574,-0.217905011,0.038680499,-0.037666085,0.432078635,-0.102262888,0
2600,2600,2.492883718,-2.499774432,0.043698149,-0.073850562,0.532469081,-0.154937316,0.602795739,-0.886237392,0.094448663,-0.024203177,0.346021093,-0.05005429,1.351653012,-0.058876168,0.063389339,-0.028514891,0.295513162,-0.033849316,1.152889847,-0.771191351,0.056975002,0.0,0.110038257,-0.398530421,1.735868904,-1.155964383,0.029105224,-0.039593799,0.321042745,-0.109453118,0.635876827,-0.949632815,0.089543844,-0.029670021,0.361319852,-0.052870694,0.559062395,-0.844492923,0.013457771,-0.039928313,0.197027931,-0.122320706,1.340422365,-0.193180354,0.014369362,-0.020579843,0.068516124,-0.161608204,0.989155269,-0.405987078,0.014903876,-0.017285496,0.060749135,-0.153413119,0.616088627,-0.634819783,0.019469066,-0.016050295,0.057726997,-0.127759758,0.259652211,-1.507742215,0.094877116,-0.054081946,0.3495789,-0.011675195,0.882670239,-0.340270489,0.016750484,-0.015235387,0.06411928,-0.118737045,0
1405,1405,0.669037753,-0.131481377,0.04669636,-0.027182522,0.168661116,-0.018952012,0.138513112,-0.306376514,0.045738332,-0.034544936,0.076335457,-0.053720538,2.27172236,-0.22140974,0.031989891,-0.06142114,0.343850376,-0.126458187,0.137561249,-0.236585464,0.015696192,-0.008045501,0.0,-0.109312421,0.207677973,-1.71293062,0.048297693,-0.042160776,0.207611899,-0.149726993,0.104248555,-0.397631146,0.044901862,-0.039066549,0.088732955,-0.126165933,0.737183143,-0.6644304,0.028261036,-0.005699216,0.065547279,-0.18170167,3.817494912,-0.280856035,0.042630242,-0.040509048,0.543197423,-0.117531962,3.969302126,-0.418169388,0.042465046,-0.029957184,0.576112045,-0.078498947,1.881987015,-0.17006677,0.007482509,-0.041794962,0.243804583,-0.122898979,1.427223367,-1.491349921,0.006708031,-0.044567999,0.22015016,-0.269772609,1.532956568,-0.397006439,0.006881535,-0.041366502,0.240158899,-0.121553442,0
1890,1890,0.276663554,-0.553327107,0.031188792,-0.033710394,0.081442632,-0.080635166,0.325231756,-1.973256396,0.036075135,-0.058922499,0.281501907,-0.250800008,0.0,-1.81557668,0.027349031,-0.071424763,0.316350272,-0.220205773,0.601544429,-1.609295294,0.014256531,-0.053900667,0.204552901,-0.286781348,0.926480556,-2.039531883,0.032892032,-0.062608857,0.359288709,-0.136723494,0.262632574,-1.496164307,0.039692211,-0.060864987,0.30099889,-0.222729756,1.449722733,-0.977777993,0.063003299,-0.06256604,0.380276634,-0.067672113,0.521537876,-0.700949692,0.008591162,-0.120234527,0.123527009,-0.276901044,0.563869154,-0.278455815,0.034817783,-0.064266314,0.083037651,-0.097913751,0.820023745,-0.243103702,0.017697578,-0.042509544,0.175026836,-0.078348635,0.265700382,-0.204414596,0.016671605,-0.051065423,0.092994753,-0.098196283,0.88193359,-0.088232475,0.037559285,-0.05704961,0.136029246,-0.133182972,0
1415,1415,1.324609206,-2.348775672,0.163899022,-0.116538853,0.547999944,-0.251092244,0.118126255,-0.1903336,0.024898682,-0.095170512,0.041020587,-0.182582895,1.001518594,-0.807934642,0.031740308,-0.071017918,0.0,-0.487929962,1.122742847,-0.250289518,0.020591592,-0.016373956,0.186928684,-0.023443567,0.151432277,-0.810747978,0.069386861,-0.03033725,0.083426438,-0.143083442,0.754907313,-0.336524565,0.029218617,-0.089130387,0.0,-0.324059586,2.14877056,-0.706321763,0.103590033,-0.107109115,0.413407948,-0.130034897,0.0,-1.16209793,0.0,-0.094477365,0.267307369,-0.377295977,1.11e-16,-1.053694597,0.0,-0.095309653,0.260308484,-0.363986203,0.937574946,-0.230481354,0.0,-0.10320412,0.308650506,-0.307057946,0.365498074,-0.611564129,0.0,-0.107962264,0.308408409,-0.336030787,0.33130064,-0.66260128,0.0,-0.100994728,0.290576156,-0.33761768,0
2804,2804,0.114629715,-3.03081827,0.041542877,-0.001673542,0.037902825,-0.475045783,2.627892347,-0.379764756,0.067502473,-0.122531627,0.417283968,-0.236894401,0.096614755,-2.471847477,0.042501663,-0.00520896,0.036858802,-0.409678929,0.189643258,-2.573885782,0.040564324,-4.38e-05,0.037588296,-0.419735763,0.097671407,-3.073260879,0.042015331,-0.003169654,0.037761429,-0.481018726,0.108562998,-2.480944267,0.043845947,-0.009357215,0.040650277,-0.415608976,0.822151029,-0.088688783,0.032249785,-0.001947409,0.098822399,-0.0618387,0.56837618,-0.027814176,0.047506948,-0.0046517,0.135682414,-0.038703317,0.434040342,-0.154995523,0.03618292,-0.002418678,0.08683551,-0.039955884,0.601425437,-0.181767559,0.039413333,-0.004466327,0.100342386,-0.042380224,2.417930928,-0.531051184,0.112196575,-0.097558741,0.394468144,-0.192761847,0.089285479,-0.798913132,0.093717824,-0.069286432,0.09398879,-0.188097499,0
734,734,0.473147851,-2.19125607,0.047133087,-0.020477485,0.120187595,-0.352798067,0.252656327,-0.942338827,0.013741256,-0.014650094,0.054147034,-0.116007688,0.165251128,-0.279666754,0.013466079,-0.014760705,0.054596138,-0.041851386,0.32311287,-1.408330155,0.013039293,-0.016132533,0.059791467,-0.191974921,2.373183328,-0.385619102,0.007776442,-0.042712848,0.417639667,-0.072198664,0.196613377,-0.633097479,0.013754365,-0.01322374,0.05886542,-0.079464591,0.189900401,-3.602109846,0.027512754,-0.029013936,0.0244806,-0.506666837,0.141135709,-0.23286876,0.010045447,-0.009571014,0.031230625,-0.045256807,0.126810804,-0.116659813,0.016645498,-0.009156723,0.031866793,-0.026109192,0.13324755,-0.209155751,0.009092094,-0.005323549,0.021417858,-0.040926497,0.326018801,-0.086552471,0.013868205,-0.009285527,0.025100926,-0.045831204,0.257733767,-0.34700504,0.025168431,-0.015093761,0.001841625,-0.129104646,0
818,818,1.013059938,-1.023249316,0.041268714,-0.037785446,0.125295738,-0.296160073,0.377843609,-1.732323013,0.00567678,-0.049947701,0.053440595,-0.332366444,0.812210045,-2.243133975,0.00444181,-0.073981032,0.109503385,-0.411980205,0.441768975,-1.957692854,0.015325864,-0.041997415,0.104021818,-0.306447745,0.132963493,-2.668900586,0.08506756,-0.086809799,0.249011511,-0.294545521,1.04121743,-1.561555792,0.004778849,-0.059485207,0.096428897,-0.364039771,1.307214077,0.0,0.020143097,-0.026922541,0.203545178,-0.038956401,1.211642763,-2.967956815,0.020720748,-0.043641391,0.457502353,-0.193636935,1.00065725,-2.764112814,0.010511115,-0.021680896,0.338613643,-0.201570836,0.920535781,-1.901619511,0.002227673,-0.05683727,0.172901164,-0.306375961,0.966308259,-2.017862609,0.02857111,-0.051685669,0.19309287,-0.387742637,2.837321169,-0.07557251,0.007547533,-0.059464569,0.092769708,-0.418302141,0
2751,2751,0.500307729,-1.000615458,0.034672732,-0.07634274,0.165220221,-0.313775529,1.632731137,-0.208527459,0.058411351,-0.020043785,0.159977075,-0.188868322,1.993284839,-0.04923273,0.043442024,-0.020942226,0.089418564,-0.250099928,0.926641309,-0.886374017,0.067297727,-0.034724948,0.27145354,-0.229968683,1.156377996,0.0,0.035592626,-0.097130628,0.101245189,-0.37975439,1.877397542,-0.010782931,0.047592319,-0.020018404,0.112376835,-0.23102879,1.356072223,-0.912725804,0.037697419,-0.021470804,0.0,-0.360235749,2.597461688,-0.192190986,0.018308271,-0.034210597,0.102106463,-0.344088925,1.802303344,-0.170947441,0.034116857,-0.012484308,0.115857441,-0.237060506,1.811764337,-0.40142383,0.036490004,-0.014163086,0.070532609,-0.329680312,2.687399895,-1.343699947,0.022625122,-0.043201667,0.143925955,-0.413070162,0.035077441,-2.936525403,0.098217357,-0.107656994,0.391222326,-0.237112865,0
1650,1650,0.559517409,-0.377423476,0.013494219,-0.025996268,0.014152106,-0.139342325,2.499194265,-1.350552215,0.078103411,-0.031677979,0.407876377,-0.222976145,1.052429125,-1.379500626,0.096219643,-0.04824122,0.387220018,-0.074485175,0.036931326,-2.438027767,0.074544175,-0.07910516,0.204303726,-0.384505723,0.093829122,-2.637901241,0.053549835,-0.063838871,0.262895133,-0.182517853,2.353708157,-1.245554281,0.079024288,-0.033662159,0.362282724,-0.243333337,0.180856012,-1.75082257,0.100815051,-0.049357926,0.187124307,-0.390052048,0.177256431,-2.425824064,0.096370052,-0.052251023,0.261283083,-0.296563444,0.220809997,-0.522084921,0.012232274,-0.014403539,0.101282042,-0.032837992,0.290942743,-0.204255005,0.017721522,-0.018519728,0.047456693,-0.057479885,2.689857008,-1.718703078,0.07023102,-0.022815721,0.510274203,-0.146764136,1.031055435,-0.252542549,0.062540242,-0.066796212,0.270637635,-0.031385112,0
1273,1273,0.583087871,-0.290663112,0.025432596,-0.014149539,0.111190385,-0.063580794,0.62048425,-0.370699342,0.068063914,-0.063635668,0.297888554,0.0,0.144976763,-0.399007216,0.015867386,-0.01002043,0.060882175,-0.040053579,3.525306435,-0.646855899,0.081641042,-0.027396063,0.550726362,-0.090761044,0.383293679,-0.232773265,0.020774061,-0.012282431,0.085387104,-0.046957241,0.353236986,-0.794538278,0.027872634,-0.087174867,0.0,-0.424768035,1.41715111,-3.731355216,0.037511861,-0.044819836,0.241073578,-0.490718184,0.840261314,-0.329220443,0.011407385,-0.026128898,0.164620391,-0.034310934,0.0819959,-0.362216442,0.01813786,-0.016820105,0.069702814,-0.020556246,0.266247125,-0.295467927,0.052630985,-0.0293223,0.108443809,-0.025219302,0.253941331,-0.789136384,0.074702115,-0.054077474,0.27107149,0.0,0.723857648,-0.170684934,0.02193601,-0.062644941,0.219486206,-0.034756825,0
2778,2778,1.218957967,-0.147895019,0.036015953,-0.01466782,0.141721661,-0.10169594,0.412505971,-1.917635546,0.132947804,-0.064310605,0.468541116,-0.03159654,0.791978859,-1.00960592,0.109222874,-0.087858874,0.329099156,-0.0599311,0.43914079,-0.94882904,0.082968368,0.0,0.106442407,-0.531330036,0.43888621,-0.424818984,0.0,-0.018843709,0.149730603,-0.017202654,0.928890385,-0.886569018,0.123174653,-0.076902279,0.441643271,-0.045505001,0.810499217,-2.530459483,0.021829638,-0.014113868,0.200478392,-0.25255494,1.82754502,-1.158038456,0.061264777,-0.067521722,0.2912112,-0.192125388,1.97684021,-1.672104316,0.023534064,-0.02620247,0.518881346,-0.026707901,0.309652829,-2.803994894,0.100263517,-0.058354254,0.418560526,-0.072537279,0.309255986,-0.184167066,0.108330632,-0.047681289,0.103076849,-0.113584415,1.699815628,-0.199930177,0.107070381,-0.052271235,0.166083205,-0.140345654,0
2908,2908,0.232329636,-0.541976588,0.001248035,-0.021648712,0.126036684,-0.046414001,0.920074281,-0.263493501,0.007186254,-0.027063499,0.139272551,-0.126796444,1.039678575,-0.405349244,0.013728668,-0.016956114,0.146407343,-0.083368224,0.830694321,-0.221229836,0.0,-0.02439803,0.11841433,-0.083627282,0.541169042,-0.530698823,0.001215006,-0.029890685,0.213830035,0.0,1.322315565,-0.813987798,0.005364738,-0.031935319,0.24280868,-0.174261405,2.598174442,0.0,0.044770365,-0.009600409,0.466370028,-0.003437112,1.223922396,-0.169572503,0.051211577,-0.062931881,0.0,-0.286363904,0.685095036,-3.543669257,0.056072907,-0.061682313,0.123770569,-0.597414827,3.821153076,-3.213169259,0.084543803,-0.078950672,0.378228211,-0.584010582,0.667956789,-1.568030256,0.061768497,-0.068717081,0.135318964,-0.352700017,1.399927076,-0.445537311,0.036429715,-0.024652636,0.210381321,-0.088125659,0
974,974,1.353064934,-2.367775039,0.007049366,-0.058116354,0.35620482,-0.229173494,0.575257148,-0.342772913,0.01776976,-0.089202671,0.382570604,-0.121850295,0.511439214,-2.012371763,0.015084234,-0.092782232,0.407676846,-0.159603402,0.886381211,-8.24e-05,0.019062971,-0.078320693,0.314635316,-0.138269772,0.82767194,-1.034052923,0.009791763,-0.083503643,0.405368199,-0.123203639,0.546168343,-0.540868661,0.017017874,-0.095291075,0.423294196,-0.09959162,2.547104953,-0.92705998,0.01393005,-0.046073832,0.39740994,-0.14567236,0.9273391,-1.8546782,0.023188516,-0.066194922,0.428428404,-0.085230736,1.137743043,-1.850829825,0.025848929,-0.06171134,0.494453703,-0.11186338,3.608880304,-1.462562505,0.01528812,-0.059185315,0.33592934,-0.51289712,1.144632672,-0.26873774,0.023600787,-0.062667972,0.374048264,-0.044247354,0.203534726,-0.523890335,0.014080913,-0.070672032,0.347290745,-0.115877561,0
3861,3861,0.163742151,-1.066986735,0.00119348,-0.016286688,0.049863565,-0.152644404,0.427503724,-1.128029757,0.003903572,-0.013243427,0.16868097,-0.084567476,1.15395197,-2.105312642,0.043004349,-0.018956044,0.359103126,-0.130093811,0.520722299,-0.633300578,0.0,-0.05540533,0.088263164,-0.307260812,0.512007218,-2.584448292,0.027984798,-0.049431576,0.19084383,-0.390773897,0.871674512,-2.343137236,0.060430707,-0.074813252,0.291511965,-0.216191873,1.006864686,-1.435255163,0.021463728,-0.042802548,0.166720588,-0.27807801,0.422514455,-2.132539979,0.015789425,-0.021595088,0.150681868,-0.211601053,1.361528152,-1.340742802,0.065250384,-0.044364495,0.164088303,-0.228169516,1.06502488,-0.432928348,0.068858353,-0.06310524,0.265243544,-0.060246544,0.352207597,-0.566624122,0.0,-0.018798634,0.143470125,-0.04196497,0.486659577,-0.930720421,0.015557162,-0.066553757,0.200472239,-0.103882457,3
3716,3716,0.341770545,-0.110256894,0.003390622,-0.024160766,0.021960849,-0.109724569,0.043150216,-0.028482883,0.006494022,-0.005786773,0.011963448,-0.014000833,0.01431341,-0.06613741,0.007485982,-0.008591378,0.014554998,-0.01906169,1.244011535,-1.477248821,0.028059376,-0.038708659,0.283966062,-0.202964469,0.827470699,-1.417694724,0.090637123,-0.020046829,0.214695172,-0.368794516,0.016107551,-0.066533134,0.006962285,-0.00689693,0.01252326,-0.016029772,0.270220384,-0.011924988,0.028373618,0.0,0.017682736,-0.175810218,0.194666407,-0.92491102,0.039314201,-0.012110344,0.063744912,-0.211575473,0.124239175,-1.099185938,0.038821419,-0.009735177,0.078296622,-0.205153297,0.006882458,-1.994197393,0.055627733,0.0,0.201141621,-0.265577418,0.19694563,-0.037818658,0.010598409,0.0,0.007977428,-0.077486938,0.105831347,-0.097854438,0.033426847,-0.006359522,0.164565578,0.0,2
410,410,1.815563106,-0.099960351,0.047144749,-0.069062098,0.294472195,-0.069007115,3.374481971,-0.840546233,0.046745565,-0.009836108,0.625223617,-0.030968263,0.239103455,-0.426325474,0.063474366,-0.159619874,0.0,-0.48201678,1.44632006,-0.567177871,0.033406402,-0.099438503,0.0,-0.483957831,1.038012359,-0.194386884,0.050951009,-0.091641419,0.192622553,-0.134521561,0.992306009,-0.472149796,0.040483286,-0.072952859,0.140721599,-0.189196217,1.380431961,-1.069533703,0.05616726,-0.098088655,0.236599228,-0.384769262,0.632636135,-0.578016501,0.031641515,-0.129447448,0.0,-0.401356665,4.029978888,-0.327516571,0.027285765,-0.077528462,0.356751345,-0.284389197,1.574298154,-0.133254475,0.050522838,-0.090123641,0.272934488,-0.109102498,2.981812864,-0.679400516,0.017508318,-0.061900666,0.29438976,-0.223519478,2.353745967,-0.114704103,0.055152071,-0.061735145,0.362720202,-0.059720356,0
758,758,0.69235145,-0.399853534,0.022058893,-0.004925723,0.106352503,-0.080793831,0.663121769,-0.162117767,0.022055405,-0.006890407,0.101764623,-0.054733856,0.165185818,-0.506589305,0.064131395,-0.04870363,0.281421459,-0.066528386,0.159747958,-0.262936551,0.022876888,-0.005259594,0.034793132,-0.064170835,0.803916169,-0.895508317,0.019130014,-0.016033043,0.092959803,-0.171260174,0.438286704,-0.757418235,0.086645614,-0.039029326,0.352751774,-0.034978928,1.843853214,-0.048549053,0.001948126,-0.011932508,0.268376457,-0.008235025,0.053027127,-0.909842623,0.021174177,-0.015198641,0.129430173,-0.061274468,0.494033288,-3.255158787,0.038684902,-0.004164497,0.070183583,-0.493810473,0.564914021,-2.982214809,0.035860929,-0.008683085,0.061591654,-0.485364349,1.221490634,-0.287638502,0.076168163,-0.053018437,0.237244595,-0.072279379,0.0,-3.196223372,0.035634649,-0.005551004,0.0,-0.498467104,0
107,107,1.181018698,-2.362037396,0.11010895,-0.099864889,0.510059519,-0.14098307,0.0,-1.522120809,0.129280046,-0.097785304,0.326507375,-0.080132869,1.104627901,-1.74781137,0.104888101,-0.11499514,0.347103728,-0.264353347,1.213982075,-1.215561724,0.13597971,-0.07075868,0.367031166,-0.067830752,1.658883172,-1.044439268,0.029335553,-0.035366945,0.380786093,-0.11824023,0.132407078,-1.499734152,0.11738282,-0.103140425,0.307029924,-0.136884229,1.750149191,-0.875074595,0.050307598,-0.054867587,0.374644112,-0.080759511,0.883745885,-0.837579461,0.008870945,-0.136209152,0.120927507,-0.302656768,0.185413254,-0.413137817,0.0,-0.020451074,0.140073055,-0.044174865,0.283648975,-0.575573021,0.073929449,-0.00164851,0.0,-0.400800839,0.773795619,-0.543781632,0.120666419,-0.13549767,0.288117812,-0.155547174,0.9798263,-2.240065927,0.067528337,-0.066178078,0.21011028,-0.316653625,0
3810,3810,0.217594866,-0.202403891,0.107689867,-0.159746229,0.093588516,-0.313066862,0.724051743,-0.827912005,0.023480068,-0.015856511,0.113364573,-0.133695493,0.516698542,-0.882487694,0.025565774,-0.015276675,0.108235324,-0.125002228,0.47774429,-0.251239421,0.01456098,-0.05412763,0.107108126,-0.142063062,0.785952316,-0.350006069,0.106488836,-0.14889294,0.251450494,-0.25132778,0.684270675,-0.903738484,0.026184972,-0.016431519,0.122382406,-0.128111668,0.433306738,-2.130552258,0.043329851,-0.064095197,0.006968167,-0.45170087,0.206864814,-0.715683656,0.0,-0.029613651,0.224742798,-0.033472291,0.902815697,-0.284439493,0.084820107,-0.078000954,0.169239304,-0.184439564,0.811137418,-0.776430423,0.016837712,-0.079480212,0.203683883,-0.173940901,0.314990753,-0.916312004,0.064734378,-0.015664748,0.209866196,-0.159200058,0.231482405,-0.143523758,0.069880503,-0.015095576,0.227616592,-0.14890179,3
1826,1826,1.410020488,-0.930080471,0.109995277,-0.065123576,0.350267935,-0.093774548,2.424317506,-1.953163167,0.067518649,-0.053721229,0.329939123,-0.3149288,2.794787601,-1.79382785,0.06229708,-0.044866359,0.35771329,-0.302086999,2.311327375,-1.973528416,0.074301291,-0.060573783,0.307931752,-0.322523546,3.733576022,-1.00165894,0.057053509,-0.037983187,0.371216697,-0.303463864,3.162443701,-1.324181666,0.064660399,-0.04886358,0.343217527,-0.30758965,0.670653588,-0.350575164,0.017371853,-0.076291955,0.189957225,-0.160304699,0.355168452,-1.539476007,0.0,-0.047193511,0.234267048,-0.2493299,0.07782484,-1.541076707,0.0,-0.052488023,0.174862583,-0.251917543,3.173669129,-0.694376818,0.031100685,-0.099501056,0.508362687,-0.09286262,1.212990819,-3.869501876,0.084776229,-0.072783472,0.260763151,-0.473496571,1.486245272,-0.994390056,0.052841996,-0.052400747,0.39340529,-0.078716942,0
3306,3306,1.993770452,-0.113009759,0.006345647,-0.021085557,0.28477188,-0.091865076,1.216667379,-0.647262027,0.020388536,-0.03544137,0.355129452,0.0,3.44598936,-1.260806112,0.026720722,-0.049066881,0.625284401,-0.030081535,0.449271772,-0.230345958,0.018723105,-0.006121117,0.101809015,-0.074955143,0.826539658,-0.94178599,0.029536537,-0.047334081,0.237115147,-0.104495232,3.236631624,-0.606443284,0.030256395,-0.04420696,0.541735761,-0.021916721,1.476598901,-0.506435066,0.087154555,-0.038413643,0.466913919,0.0,0.733365308,-2.00047038,0.045914234,-0.043565607,0.234108828,-0.238340735,1.119344936,-0.571746691,0.023188482,-0.034149522,0.077629659,-0.178104373,0.150830176,-1.776701682,0.036200966,-0.04412571,0.133594541,-0.268488975,2.026127473,-0.258406364,0.027387728,-0.019418096,0.322080985,-0.054153175,1.222884272,-0.577582954,0.034920887,-0.020177354,0.326108444,0.0,0
425,425,0.34958922,-0.352365336,0.006794766,-0.01184753,0.090826583,-0.021703686,0.286351637,-0.267641432,0.077488455,-0.131190346,0.359242398,-0.398455744,1.403987111,-0.325296185,0.045270767,-0.087666302,0.0,-0.480525046,0.648293139,-0.664515909,0.005561388,-0.013941769,0.16252227,-0.030912786,0.354523064,-0.135215832,0.00724476,-0.004771801,0.066507536,-0.012435138,0.651521677,-0.834402027,0.079587356,-0.117947864,0.048719219,-0.372770776,0.341922366,-0.683844733,0.013253406,-0.132392745,0.233117671,-0.338532894,0.294966695,-0.792396607,0.029361368,-0.020618442,0.239445252,0.0,0.153211859,-0.630316102,0.025436448,-0.019269365,0.192956514,0.0,1.073030144,-2.417046226,0.062171702,-0.101290282,0.505439198,-0.158444033,0.866763333,-0.877331863,0.012006484,-0.005920234,0.143685365,-0.092692316,0.657169962,-2.234391919,0.048339056,-0.048854146,0.294575154,-0.151280341,0
1390,1390,2.334216511,-0.101661935,0.071588862,-0.016579145,0.288389378,-0.146633951,0.226121244,-0.039414281,0.132991648,-0.105210582,0.34316955,0.0,0.287483315,-0.505792766,0.077691664,-0.100462651,0.227618069,-0.072069317,0.567955625,-0.196378516,0.139500151,-0.106355953,0.347262919,-0.122306653,0.116726044,-0.155554529,0.03152484,-0.084562026,0.067650903,-0.029765806,0.232309676,-0.158365233,0.032068506,-0.10480433,0.271505079,0.0,1.088284003,-1.746339929,0.034332095,-0.035446514,0.302087708,-0.141100594,1.915421742,-1.505241574,0.067226601,-0.052138884,0.145969079,-0.376965909,1.978580405,-0.247294922,0.032668889,-0.071281875,0.303099928,-0.042036457,1.87205995,-0.133264798,0.05248996,-0.010717131,0.253455116,-0.055026877,1.367180336,-0.079367027,0.021021709,-0.02647332,0.107587371,-0.165377944,0.980250364,-4.44e-16,0.114217103,-0.10515852,0.485218873,0.0,0
3573,3573,1.499667323,-1.478671669,0.040841954,-0.030128972,0.281813373,-0.199074361,0.296258517,-0.513647054,0.050460511,-0.04859982,0.036570698,-0.189005297,1.044958701,-0.350103799,0.035223555,-0.083008726,0.021085974,-0.303069052,0.370336287,-2.021609262,0.06285968,-0.043789075,0.185627275,-0.355095124,0.614902094,-0.746336959,0.021422091,-0.012438365,0.106443224,-0.131481918,0.61758586,-0.550981003,0.046545948,-0.059291488,0.092531061,-0.261935712,0.360154888,-1.577750663,0.055990116,-0.054156252,0.042528576,-0.328763131,1.001015427,-0.542027989,0.040310523,-0.093464924,0.450920372,-0.11902455,1.463595031,-0.170845781,0.040380296,-0.015858705,0.236371867,-0.019493514,1.006566005,-0.406723009,0.0444801,-0.014574298,0.225519282,0.0,1.069138626,-0.277206064,0.043412569,-0.014533778,0.211478507,-0.009403874,1.150400578,-0.387534878,0.046019297,-0.015691306,0.220923249,-0.035592676,1
3145,3145,0.490192399,-1.219228656,0.01312239,-0.029032603,0.15877902,-0.135422997,1.417316986,-0.155763782,0.010455066,-0.037899808,0.220192763,-0.035150658,1.402501841,-0.107929053,0.012021814,-0.027993634,0.20054505,-0.049708394,1.499616064,-0.644825418,0.022095241,-0.040254526,0.267459796,-0.098658205,1.040128196,-0.172886022,0.010385228,-0.018061344,0.157032229,-0.056167733,1.399058915,-0.3367034,0.009287839,-0.031529378,0.220449329,-0.058728476,1.855239497,-0.222201186,0.010960309,-0.03346999,0.339654098,-0.035514881,2.769445513,-0.032392462,0.06064821,-0.007804308,0.455314864,-0.034491504,0.614453306,-0.307590517,0.0164954,-0.028156954,0.13948639,-0.032646281,0.974125991,-0.096447627,0.027971224,-0.023143006,0.18505488,-0.025490431,0.461276941,-0.623119261,0.041213223,-0.026571857,0.147404311,-0.074694156,1.407898117,-0.08292961,0.034449867,-0.024825033,0.152549488,-0.055197015,0
3455,3455,2.384580573,-0.407831285,0.072472895,-0.08820778,0.238101437,-0.334631156,0.484579362,-0.09429333,0.062291276,-0.01510932,0.049062424,-0.182457306,0.895588052,-0.48276041,0.044133888,-0.043300987,0.142198346,-0.114430229,0.475960568,-0.208586344,0.070696697,-0.048555768,0.143819206,-0.189777655,2.323045752,-0.644207478,0.055838095,-0.082879209,0.235233829,-0.353389405,0.612959605,-0.157521157,0.07288414,-0.022983155,0.037614213,-0.202129193,1.430582032,-0.060536156,0.056977484,-0.077344796,0.220991493,-0.097949371,0.426214995,-0.200697289,0.045787537,-0.077024297,0.141686948,-0.097687562,0.551282471,-0.689883978,0.054491925,-0.077207469,0.163146632,-0.141026186,2.02240622,-0.393769349,0.077396133,-0.047016116,0.275801836,-0.343154237,1.800310979,-0.232209671,0.089195829,-0.026454203,0.228340316,-0.248366193,1.565293127,-0.47981641,0.071696677,-0.098358829,0.230467373,-0.223409689,1
1847,1847,1.695822468,-0.093279736,0.014666299,-0.039981931,0.222842616,-0.109815107,1.715647269,0.0,0.0,-0.019364601,0.268431337,0.0,0.0,-0.145160894,0.004920025,-0.015571873,0.008499053,-0.044570925,1.837151112,-0.102210611,0.008129343,-0.026278138,0.257298758,-0.063715633,0.3817124,-0.354969222,0.058526898,-0.043390465,0.166703261,-0.107810288,0.132340937,-0.213277444,0.003777082,-0.010041342,0.027939398,-0.021498795,0.518722,-4.732493366,0.038769212,-0.086512395,0.282315931,-0.519983386,0.691795575,-3.91991068,0.031805709,-0.157689321,0.074010351,-0.603832293,0.615879768,-0.713606551,0.086499442,-0.115742236,0.266004267,-0.170245282,0.572457321,-0.490522305,0.093861107,-0.109794089,0.264601899,-0.14250511,0.37291938,-0.95010625,0.074304956,-0.073918643,0.187844049,-0.144494918,0.212176061,-0.278653391,0.083582024,-0.068227679,0.180712235,-0.092126828,0
3165,3165,0.793174174,-2.039155208,0.075474719,-0.047572415,0.324772828,-0.194235167,0.479318128,-1.662963992,0.069460824,-0.061155357,0.28477883,-0.201327959,0.080372249,-1.060242907,0.006715797,-0.040307608,0.291201399,-0.001227824,1.124936256,-0.611606389,0.073650255,-0.054840614,0.273999095,-0.10688255,0.0,-5.112206783,0.035521155,-0.039141491,0.512508249,-0.282484843,1.134063834,-1.217159529,0.049461086,-0.056180791,0.258926129,-0.108622856,1.001551483,-0.252935445,0.077343082,-0.059246005,0.101913056,-0.172196755,0.062342783,-0.883428715,0.025443439,-0.013599349,0.141566905,-0.047415542,0.672822188,-0.548722868,0.077584501,-0.080944587,0.243670424,-0.059345775,0.894225599,-1.513111932,0.027414557,-0.030045308,0.022595115,-0.390510125,1.224106091,-0.212566921,0.08396251,-0.082019638,0.180383033,-0.219003249,0.988169245,-0.556948902,0.072583776,-0.067750324,0.173996076,-0.222217536,0
1026,1026,0.070241489,-0.370538982,0.007075515,-0.004391614,0.037105337,-0.030107615,0.325483896,-0.357356021,0.034910916,-0.01009618,0.146622371,-0.01318622,1.025590217,-0.281093465,0.046682414,-0.036478246,0.143453402,-0.098105112,1.959251507,-0.674218911,0.031407,-0.09452972,0.318238854,-0.164483462,1.169493923,-1.182259668,0.024412761,-0.021094941,0.258755254,-0.075892268,0.352021125,-0.332081495,0.032572479,-0.013542608,0.15209806,-0.012861163,0.99279455,-0.462382272,0.016425088,-0.06974027,0.267730802,-0.080547226,0.0,0.0,0.0,0.0,0.0,0.0,0.0,0.0,0.0,0.0,0.0,0.0,0.196491055,-1.416144912,0.010181726,-0.01450888,0.105099873,-0.136591192,0.561617987,-0.19401378,0.034003085,-0.011721876,0.154856585,-0.010781353,0.152426424,-0.258228693,0.026936012,-0.016001499,0.124144972,0.0,0
2933,2933,0.262227647,-0.387998965,0.090608414,-0.066053497,0.099260507,-0.134637621,0.393625743,-0.335430803,0.033583667,-0.011791333,0.101945399,-0.052624423,0.25824525,-0.603511216,0.048930144,-0.109655325,0.0,-0.416662776,0.170728739,-0.283895062,0.056933729,-0.025845102,0.06037302,-0.117598899,0.111254009,-0.563310941,0.121309833,-0.04727382,0.351602729,0.0,0.685961425,-0.322485233,0.03207695,-0.012103526,0.142352153,-0.068780591,0.632126327,-0.312955394,0.029788368,-0.110906352,0.063759579,-0.169479053,0.298711344,-0.758784339,0.020338577,-0.012363071,0.085343616,-0.077421133,0.364596666,-0.131894493,0.01896471,-0.0112884,0.066883598,-0.037559437,0.504774722,-0.372601886,0.022067857,-0.011500314,0.103227648,-0.053975515,0.929581763,-0.034657,0.023853433,-0.017224274,0.121924174,-0.049044373,1.296171302,-0.102686567,0.035847729,-0.019691962,0.174932065,-0.053311812,0
295,295,0.012344308,-1.09995079,0.100726018,-0.024448478,0.417451407,-0.010092493,0.583896398,-0.183205829,0.028848192,-0.008551675,0.135432529,-0.078505174,0.77731001,-0.219216707,0.022218958,-0.009762065,0.106808113,-0.083521767,1.931707012,-3.632194081,0.077754358,-0.03975953,0.175484939,-0.648598388,0.443398659,-1.236764517,0.038663899,-0.057060292,0.152705597,-0.227588804,0.70412356,-0.11594628,0.045767642,-0.009130859,0.186642253,-0.064609951,1.757255725,-0.779465852,0.046409682,-0.049492656,0.088993137,-0.304413537,1.523156549,-0.374711698,0.009088048,-0.021830315,0.36749748,0.0,0.095780449,-0.177368962,0.025493036,-0.008996163,0.053987466,-0.095339424,0.785351072,-1.105153808,0.039238415,-0.008981445,0.069360348,-0.218798563,0.529843532,-1.971040146,0.114234712,-0.042302124,0.481895642,-0.052563963,0.389806859,-0.93451399,0.076589316,-0.081424568,0.216271388,-0.115242434,0
3312,3312,0.38962108,-0.052470827,0.02783691,-0.009355249,0.071744026,-0.067999362,1.330620941,-2.903044506,0.090156258,-0.012806828,0.662397212,-0.023928297,0.878155725,-0.525979211,0.048322636,-0.006525074,0.371451017,0.0,0.815007815,-0.744851393,0.102902122,-0.04468644,0.11512624,-0.525379269,0.626700287,-0.007552097,0.010374439,-0.02394161,0.079034318,-0.041959476,0.681160557,-0.180284884,0.072025291,0.0,0.568055592,0.0,0.389414159,-0.170702278,0.020628586,-0.019916273,0.079796912,-0.070710811,0.285536214,-0.169381321,0.01347508,-0.007307228,0.056491097,-0.033883463,0.359239667,-0.265388455,0.075473318,-0.006383573,0.174551792,-0.043062231,1.165657054,-0.34713296,0.025156895,-0.01003275,0.155793756,-0.089436069,0.638973808,-0.409283157,0.018995281,-0.012797383,0.14493783,-0.021484299,0.437799593,-0.959726813,0.014489952,-0.021576011,0.126845072,-0.091041428,0
2417,2417,1.010923347,-1.835746642,0.031431609,-0.013051867,0.254070578,-0.213591047,0.286402348,-0.728011837,0.07219277,-0.08317491,0.310893049,0.0,0.57582433,-0.585440116,0.04799313,-0.104012365,0.187425683,-0.173355531,0.686624086,-0.720866433,0.071512744,-0.056991903,0.506950388,0.0,0.564977985,-1.653870292,0.031188803,-0.103471124,0.129094658,-0.364635829,0.716119364,-0.412314067,0.070658811,-0.091111855,0.256953031,-0.061015344,1.635242887,-0.607908935,0.080366348,-0.02445356,0.268132062,-0.253650256,0.0,-3.112034901,0.021936625,-0.012449713,0.210802113,-0.237800746,0.497941438,-1.507072981,0.01052204,-0.013444633,0.103510365,-0.16903346,0.240450745,-4.876610537,0.08029699,-0.045697224,0.535438688,-0.199293441,0.678981311,-1.788562236,0.057105392,-0.059745208,0.34768869,-0.066265483,0.60284296,-2.906779805,0.023704947,-0.048856677,0.262962535,-0.254520398,0
1181,1181,0.171320697,-0.762923878,0.073254934,-0.053915922,0.244160465,-0.123043072,0.125293773,-1.315545579,0.023213285,-0.011480191,0.123789603,-0.120568618,1.573520293,-0.236953254,0.044604302,-0.071842787,0.188269979,-0.269971343,0.242925822,-0.675593466,0.021749366,-0.007085209,0.060502746,-0.111787056,0.584058027,-0.672676685,0.065904691,-0.05419745,0.182138163,-0.107003105,0.00965987,-1.378754863,0.03401679,-0.019334948,0.162362527,-0.091327658,0.416710222,-0.04692038,0.010578468,-0.012772659,0.071913986,-0.031517481,1.386851527,-0.088458198,0.062754422,-0.010547546,0.264119048,0.0,1.381625334,-0.084691681,0.048859563,-0.008754613,0.315638082,-0.007641162,1.0200651,-0.046065112,0.065161579,-0.006610471,0.266936426,-0.030433005,1.397027729,-0.069625757,0.052424001,-0.007587656,0.302525803,-0.052905858,0.83030281,-0.467481801,0.089727418,-0.075328011,0.333260157,-0.090750987,0
1535,1535,1.14822746,-2.615591081,0.005032222,-0.027553005,0.513923443,-0.022323955,3.550176915,-0.142590487,0.020857195,-0.049875351,0.455168609,-0.057525915,1.293138308,-1.933701202,0.006054864,-0.033374818,0.424999184,-0.046128026,0.553346421,-0.103694481,0.025070922,-0.020036119,0.102136067,-0.036819818,0.204773947,-1.607760038,0.001582157,-0.045996957,0.029103148,-0.309608135,2.370007348,-1.33577922,0.017413455,-0.050362842,0.462122534,-0.051918821,1.185588224,-0.727741015,0.024176052,-0.032752641,0.186354912,-0.098168289,3.447735753,-0.496104081,0.022903007,-0.063873908,0.457419178,-0.155486018,1.96418449,-0.382468409,0.009204488,-0.043972226,0.337048349,-0.081066429,1.970990162,-1.748383863,0.042023831,-0.040906488,0.47091272,-0.042466988,2.25409538,-1.351370995,0.03063539,-0.039195896,0.443180205,-0.05851387,0.999129932,-0.884375306,0.020535279,-0.037533469,0.274380502,-0.069149013,0
1188,1188,0.197812067,-0.157823258,0.038241441,-0.02348153,0.051100828,-0.067643496,0.389264853,-0.200327616,0.03235659,-0.013861196,0.08309076,-0.072131,0.03362572,-0.903195576,0.069996623,-0.049130657,0.109859193,-0.093288687,0.426156281,-0.715783579,0.013170854,-0.030658793,0.087538383,-0.153761447,0.232102465,-0.627180794,0.049644013,-0.041018891,0.081700709,-0.11893427,0.270033396,-0.285506215,0.035004815,-0.026242673,0.097051813,-0.071676601,3.22020892,-0.59623301,0.012105312,-0.016519984,0.456257097,-0.080005516,1.268723071,-0.670388992,0.015665726,-0.03703694,0.285908178,-0.004425799,0.436345431,-0.465161128,0.058841463,-0.00856139,0.068536023,-0.12656834,0.447855124,-0.40572154,0.018883034,-0.011157882,0.116685916,-0.045622149,0.313974206,-0.074835334,0.034033255,-0.015729789,0.081098013,-0.073648152,1.332662077,-0.47247526,0.015440968,-0.010579898,0.151743049,-0.102261979,0
1401,1401,3.098245675,-0.119424365,0.063516959,-0.045769468,0.361469565,-0.12685124,1.576358512,-0.550101392,0.041963834,-0.053630412,0.362392237,-0.000718789,1.420822789,-0.294477362,0.018620235,-0.043304904,0.236854357,-0.060467659,1.138215607,-0.507751335,0.061386882,-0.060538545,0.350292757,0.0,2.144780582,-1.593032067,0.033477046,-0.068706935,0.272855228,-0.368020032,1.427690553,-0.461019174,0.036537902,-0.050434485,0.294383367,-0.028618289,1.302267918,-2.373822451,0.067174953,-0.050926931,0.2991433,-0.26988011,1.298591808,-2.501216495,0.027802921,-0.038078308,0.219821842,-0.334941042,0.728195984,-0.293928013,0.014374528,-0.026466552,0.146386399,-0.057470198,0.608703175,-0.171485297,0.032875747,-0.036113838,0.106142548,-0.067869056,3.625374004,-0.24067274,0.06559831,-0.050245413,0.470581103,-0.130240065,1.693085031,-0.461909796,0.057218388,-0.030649897,0.31795312,-0.149971126,0
1156,1156,0.990387886,-0.094125858,0.035844563,-0.002794912,0.120189672,-0.124990262,1.821880706,-0.169253659,0.053380505,0.0,0.245264727,-0.203029183,0.818044569,-0.518655332,0.069641448,-0.086735033,0.116089244,-0.201599729,0.34332465,-0.018726389,0.064903337,-0.116424955,0.286051788,0.0,0.928409903,0.0,0.007915579,-0.020562929,0.040265758,-0.108313612,1.027861103,-0.356757247,0.080931118,-0.081657179,0.286853762,-0.03919684,2.02144846,-1.277412342,0.026053714,-0.087952284,0.130994568,-0.478746471,0.748669108,-0.345493183,0.014526646,-0.007821783,0.10487106,-0.067326556,1.551228214,-0.863995627,0.064775504,-0.048641939,0.089423616,-0.33314122,1.639891183,-0.090440519,0.03229413,0.0,0.246056105,-0.10870511,1.515607391,-0.457060216,0.079107301,-0.062107815,0.409026224,0.0,0.644737251,-0.348438379,0.088480978,-0.061379338,0.367288745,0.0,0
2606,2606,0.300689732,-0.247370826,0.05607471,-0.057430392,0.186869805,0.0,1.218931147,-0.410861646,0.020714139,-0.033037768,0.155681019,-0.095921961,0.528474838,-0.80743924,0.03320838,-0.077742435,0.014337906,-0.261603055,0.521435303,-0.746132557,0.16639883,-0.063456375,0.196654021,-0.138623897,0.312566488,-0.358949083,0.095706741,-0.088376829,0.119845303,-0.149211641,0.683156193,-0.487865153,0.032838081,-0.039794811,0.031822941,-0.175278272,1.260245238,-0.611473198,0.037772895,-0.061055675,0.019503018,-0.321953487,0.441799076,-0.264202974,0.090274341,-0.072694576,0.088281176,-0.144908006,0.129590298,-0.130711894,0.026671204,-0.034341703,0.094332186,-0.019580315,0.297183929,-0.105970404,0.017716535,-0.031383496,0.06516612,-0.047942921,0.823818446,0.0,0.017309307,-0.030624168,0.117820399,-0.057867896,1.320448412,-3.290118787,0.031623712,-0.059401608,0.265340879,-0.404281751,0
1014,1014,0.435950065,-0.253350791,0.085406617,-0.043432592,0.096900439,-0.155582189,0.801089881,-0.384055018,0.138029269,-0.072370243,0.251445719,-0.233586812,1.027526405,-1.453079249,0.068620468,-0.066506866,0.243669274,-0.175943312,0.670977559,-0.871669354,0.095862674,-0.040763675,0.156789264,-0.229235341,0.394258954,-0.292203169,0.02389584,-0.052393425,0.056757401,-0.102614151,2.506470687,-0.525642287,0.10650117,-0.062995512,0.546518342,0.0,1.522043848,-1.85982657,0.052175612,-0.037203862,0.302753245,-0.16504069,0.909307885,-0.607284555,0.031294554,-0.077589116,0.0,-0.432316064,0.658024166,-0.873827345,0.019783079,-0.05769073,0.217132543,-0.057153322,0.745574903,-0.434702624,0.063989014,-0.071127224,0.137449043,-0.192165656,0.281771915,-0.461437611,0.122523733,-0.076636384,0.076906373,-0.193362026,3.009832821,-1.848378398,0.033908742,-0.030136655,0.40692019,-0.318548214,0
182,182,0.992463714,-0.458536045,0.027013836,-0.032336247,0.171554291,-0.068223347,0.797614865,-0.262541791,0.092256173,-0.04769698,0.311667039,-0.167961533,0.621996699,-0.502320021,0.061133033,-0.037269025,0.254021569,-0.080977944,0.983261652,-5.55e-17,0.048827103,-0.064162811,0.233132555,-0.051401834,0.957205565,-0.226230101,0.047817676,-0.073919241,0.069205672,-0.232133714,0.408976491,-0.817952981,0.104138517,-0.022540181,0.342412504,-0.258835482,0.943990986,-0.520300223,0.029961595,-0.06134588,0.121712555,-0.259321861,0.190272024,-0.016962893,0.017208486,-0.008670683,0.033488108,-0.032118369,2.883090709,-0.183065039,0.057951738,-0.057729614,0.444443726,-0.043343815,2.378516329,-0.192414083,0.06070619,-0.054279886,0.400001294,-0.050458987,1.065685719,-0.035214717,0.031958075,-0.038859325,0.140617316,-0.087861502,0.54854742,-1.136097853,0.031065156,-0.044749926,0.157994687,-0.119210625,0
2192,2192,0.804069317,-0.393124143,0.032168566,-0.020964236,0.137855281,-0.049306904,1.251073297,-1.346933621,0.002430478,-0.050630932,0.095825838,-0.361506166,1.56677403,-1.327537967,0.006378123,-0.050224876,0.081716486,-0.39729474,1.766898841,-2.22e-16,0.005758294,-0.051304629,0.131826581,-0.278466798,0.832205425,-2.264887165,0.014653045,-0.050030529,0.089324766,-0.419845698,1.313442882,-1.465766306,0.003202358,-0.050188982,0.083521877,-0.382019954,0.552512336,-1.260510542,0.043775496,-0.022687969,0.158607565,-0.167340102,4.020761918,-0.762448868,0.011976217,-0.020360541,0.483281448,-0.184130388,1.289232875,-0.451409516,0.013950739,-0.01559298,0.157255274,-0.087730509,0.512852964,-1.379243898,0.01249217,-0.022516934,0.145631502,-0.150938136,1.80580008,-0.614012904,0.0416752,-0.036214567,0.169416531,-0.246252276,2.502737115,-0.067842894,0.028134545,-0.04141652,0.180802067,-0.270366589,0
3193,3193,0.488746801,-0.30468695,0.034203134,-0.056029729,0.131803183,-0.080337959,0.063123872,-0.757855614,0.020167242,-0.030746447,0.031048719,-0.135218273,4.204354777,-0.7373576,0.073195237,-0.032355564,0.586987644,-0.179561093,0.148417405,-0.541838421,0.022041672,-0.030862282,0.00866707,-0.128110362,0.587780718,-1.101011381,0.079218698,-0.049284899,0.397131662,0.0,0.213135255,-0.866990014,0.017207591,-0.027650295,0.038693973,-0.168522686,1.945432228,-0.694292486,0.04540419,-0.036236963,0.30962573,-0.113619844,0.951913844,-0.426220067,0.027829018,-0.084126977,0.0,-0.455227754,0.145280529,-0.277012169,0.014406637,-0.014733998,0.056794657,-0.031862322,0.223683028,-0.686444007,0.047626045,-0.029048006,0.028256697,-0.139190238,0.219174552,-0.559344621,0.025565241,-0.032902516,0.026810459,-0.146627257,0.224025789,-0.448051578,0.024958528,-0.021159587,0.03234881,-0.114357851,0
1974,1974,0.815768783,-0.473428876,0.016524517,-0.008674311,0.113360589,-0.105651265,2.28704638,-0.514027231,0.03752765,-0.040261053,0.300144698,-0.104372289,2.056059949,-1.146259454,0.040749883,-0.025122678,0.452776058,0.0,2.761016464,-1.671243277,0.051485815,-0.052415278,0.329265249,-0.347111137,0.359319556,-0.480642634,0.006995237,-0.014664875,0.080712542,-0.048255045,2.39920746,-0.405408998,0.029737087,-0.031022677,0.32642605,-0.055328272,1.060323511,-0.683868803,0.0357623,-0.065160915,0.170980551,-0.199085935,0.090773793,-0.078572245,0.032763328,-0.047137812,0.032342338,-0.045597259,1.044795662,-0.252897401,0.01706435,-0.024727592,0.137350334,-0.065819388,0.403815321,-0.342614266,0.009013076,-0.012125953,0.079448775,-0.04459162,0.535981078,-0.080763788,0.010068721,-0.008753878,0.066969648,-0.052604482,2.516030759,-0.135146383,0.010889396,-0.023634735,0.326760542,-0.056737914,0
1632,1632,1.073683055,-0.277561778,0.029037005,-0.036366696,0.189640748,-0.074189186,0.824456814,-0.533147817,0.027937045,-0.039164687,0.232236925,-0.039400888,2.139339065,-0.367904977,0.034865451,-0.063538031,0.224206401,-0.231283142,0.541264419,-1.283217037,0.038567159,-0.038232992,0.217191328,-0.113431682,0.56606688,-0.389363493,0.031801241,-0.032633239,0.039521672,-0.170165444,0.398936027,-2.429698093,0.02649797,-0.080586817,0.208513462,-0.248332918,1.113513496,-4.367026134,0.036673067,-0.032414212,0.458225392,-0.305031891,0.932762296,-4.236282255,0.0138644,-0.042769683,0.22526145,-0.481880755,0.486271439,-2.291176824,0.004230733,-0.066023897,0.223582476,-0.345707511,1.171431737,-1.346164546,0.007324969,-0.05984787,0.224314623,-0.300424261,0.106355841,-2.862250989,0.024383437,-0.098774868,0.245524729,-0.289700656,2.302164324,-1.962639021,0.04297384,-0.07260076,0.469399154,-0.106543591,0
992,992,0.270342894,-0.0916091,0.059090451,-0.074438537,0.085388299,-0.109459438,0.063856072,-0.079197421,0.052794079,-0.075160434,0.133270063,-0.035711986,0.080917081,-0.382828047,0.077171779,-0.12820349,0.219375045,-0.051104653,0.143624429,-0.101242618,0.014552045,-0.007921978,0.0,-0.115529946,0.485802296,-0.542359659,0.088070958,-0.100434595,0.022732392,-0.296759953,0.03812031,-0.167565565,0.06077797,-0.088755573,0.157455137,-0.041941023,0.330723598,-1.127774604,0.0,-0.041473905,0.354667895,-0.045480088,0.652952401,-0.216824423,0.024095979,-0.005381372,0.092932601,-0.093442757,0.340727359,-0.263056342,0.020415544,-0.006680557,0.101195415,-0.046962977,0.378393995,-0.296651863,0.015519906,-0.001488219,0.090492215,-0.044469579,0.124414966,-0.117274319,0.067957962,-0.117983363,0.160114304,-0.135785689,0.113301214,-0.08038375,0.032019165,-0.087102886,0.105506107,-0.094317364,0
1099,1099,0.389187173,-0.129340157,0.029345072,-0.014397238,0.061089232,-0.059150662,0.586133991,-0.179534612,0.022056804,-0.017291421,0.102934917,-0.032693729,1.117155835,-0.529710554,0.025960093,-0.036653829,0.263622102,-0.052419648,0.100146492,-1.103477716,0.093856197,-0.030379612,0.1909245,-0.331627869,2.474193893,-1.089732037,0.079298777,-0.014364665,0.433953887,-0.116281281,0.702832331,-0.210484756,0.024881575,-0.018261733,0.118610061,-0.04640483,0.156951742,-0.078475871,0.008459262,-0.001364089,0.007235318,-0.048328685,0.430862483,-0.057666692,0.006885623,-0.010481191,0.083413603,0.0,1.009284671,-0.702828001,0.014485595,-0.073536503,0.0,-0.500227896,0.811964913,-0.384962173,0.017296683,-0.041300714,0.27303153,-0.02753734,1.916009672,-0.412514468,0.0363064,-0.018312559,0.280086491,-0.074134918,1.378070248,-0.609854409,0.065639054,-0.073315042,0.338537394,-0.063760129,0
3126,3126,1.336102275,-0.519860103,0.05053589,-0.020159704,0.178649613,-0.162784086,1.456639943,-0.205458038,0.093113561,-0.048938108,0.234901705,-0.135066334,1.083521129,-0.449813391,0.075609788,-0.064817315,0.122155423,-0.185865035,0.594710043,-0.332928419,0.108868684,-0.040338029,0.224803785,-0.125375835,0.508679643,-0.364708554,0.060399651,-0.078518228,0.0,-0.265408426,1.210951435,-0.407449669,0.084716966,-0.054558719,0.178083269,-0.149313795,1.052771482,-2.057033133,0.037308087,-0.046433562,0.375774173,-0.088889657,2.492002246,-0.687227473,0.023382852,-0.010667313,0.36762738,-0.05743616,0.87436579,-0.368888167,0.03998022,-0.037187598,0.174952482,-0.104462382,1.205169319,-0.074380927,0.020951627,-0.028305106,0.100212901,-0.123495536,0.531454283,-0.559620835,0.089376866,-0.026882601,0.392934701,-0.003630406,0.767574035,-0.547624387,0.07680973,-0.02047047,0.32279328,-0.016557272,0
894,894,0.0,-3.33085539,0.032110565,-0.012898352,0.0,-0.498523485,2.175140907,0.0,6.84e-05,-0.016513203,0.3111851,0.0,1.530688896,-0.32796666,0.007952847,-0.016944476,0.213849514,-0.065582264,1.227584092,-0.843749754,0.007366947,-0.018034173,0.331850426,0.0,0.223770744,-2.741583176,0.031271569,-0.041917088,0.023380266,-0.416867164,2.011939328,0.0,0.003951185,-0.016531194,0.292873775,-0.002325714,1.890168343,-0.097325258,0.022278807,-0.050374734,0.329206221,-0.014256023,0.658723724,-0.118829575,0.003117983,-0.047980849,0.170031192,-0.100669065,0.96458048,-1.941468066,0.014743146,-0.033257493,0.185906025,-0.255595983,1.982263281,-0.067569191,0.034765413,-0.057465396,0.305406679,-0.065098066,1.527166626,-2.916756525,0.040340076,-0.092087825,0.249306606,-0.431347524,1.792103816,0.0,0.02935493,-0.117130537,0.327861998,-0.290057072,0
2951,2951,1.104160463,-0.688921609,0.043615185,-0.040861585,0.229138289,-0.068376252,0.441889286,-1.038171731,0.024725766,-0.035069688,0.173552448,-0.075381517,0.983818413,-0.495188722,0.030765247,-0.044706282,0.100955753,-0.123164768,0.608668193,-0.127143322,0.00088684,-0.007086434,0.06670951,-0.056243447,1.868825156,-0.289792749,0.029923981,-0.024323138,0.130762062,-0.222464411,0.792895359,-0.411567032,0.021568662,-0.035228945,0.141835755,-0.078666573,0.180591048,-0.170732861,0.0,-0.008300656,0.053288695,-0.03191748,0.315853766,-0.072093071,0.011083696,-0.014189481,0.088860306,-0.009414925,0.461913524,-0.778279577,0.007073095,-0.024692608,0.063489846,-0.159214483,0.34726702,-1.599501397,0.029645172,-0.041893324,0.166876708,-0.161443631,0.1983251,-0.81034768,0.025137914,-0.047853434,0.138607,-0.079020412,0.531300409,-0.598757184,0.016766321,-0.053852752,0.221834535,-0.054133898,0
2662,2662,1.301217562,-0.12372675,0.022386015,-0.01396929,0.136305524,-0.097557165,1.492585028,-0.321618384,0.016749442,-0.022395048,0.120457023,-0.155149165,0.879902932,-0.320327,0.079900128,-0.048531384,0.362138906,-0.033122682,0.38893674,-0.635445078,0.056347306,-0.049021661,0.206771146,-0.051552652,0.511975476,-0.618283117,0.04263684,-0.07646697,0.097688763,-0.164886363,0.79234706,-1.684581587,0.083623673,-0.035790497,0.37240906,-0.159222585,1.591950933,-0.953569994,0.019807832,-0.019934692,0.198840273,-0.181146689,1.786881838,-1.464870985,0.035555527,-0.025547212,0.263291103,-0.232832264,0.216128077,-0.402246697,0.023319406,-0.007251647,0.057253498,-0.102165421,0.369370264,-1.178148688,0.028247616,-0.011486751,0.106495641,-0.141994597,0.966461834,-0.191436629,0.021640999,-0.013242971,0.090452271,-0.08746926,1.320044023,-0.96099432,0.102546136,-0.02636359,0.406602861,-0.122263236,0
2245,2245,1.675494987,-0.691970756,0.077176303,-0.023547363,0.035620001,-0.386967086,1.048892742,-1.06080613,0.066670344,-0.059652562,0.318807883,-0.080865089,1.478373852,-0.185977647,0.044378538,-0.068143379,0.319739933,-0.101709625,0.73758516,-0.678209985,0.089496807,-0.049032759,0.181209168,-0.261940541,2.372716306,-0.509405786,0.031951048,-0.060676947,0.198988487,-0.217279432,1.635299805,-0.003153666,0.121533286,-0.062731288,0.476797118,0.0,0.768034677,-1.900699406,0.058874535,-0.074543967,0.194247244,-0.43586104,0.760195011,-2.146153717,0.053590676,-0.063720065,0.186303505,-0.430831085,1.99378557,-2.254887896,0.057217507,-0.048458761,0.16857289,-0.466907744,1.282106737,-1.435486254,0.056544143,-0.075923742,0.316954934,-0.136183759,1.213898348,-1.350831649,0.059050438,-0.075294806,0.299313496,-0.148717497,0.76653682,-0.584423141,0.019167102,-0.046553558,0.183698636,-0.177869823,0
2373,2373,1.343179524,-0.099339484,0.021093296,-0.084429908,0.312925766,-0.110297392,1.951737189,-0.11256863,0.095310553,-0.127797662,0.498792231,-0.134397568,0.139733553,-0.582803163,0.091160771,-0.08327325,0.060585953,-0.199482326,0.133466231,-0.878896623,0.135625628,-0.094028798,0.0,-0.623384417,0.561241753,-1.658628678,0.023635212,-0.053215297,0.095180543,-0.30996252,0.195608121,-0.188738933,0.090171793,-0.069585824,0.191075982,-0.157567466,0.817538211,-2.161527418,0.041425777,-0.08367434,0.165868518,-0.343014573,0.415590675,-1.089371169,0.033443053,-0.03177672,0.141753726,-0.109052885,1.160653172,-0.070508546,0.019129631,-0.070597866,0.223103348,-0.087651285,0.604357639,-0.514339568,0.017913377,-0.077592634,0.264325217,-0.11225202,1.381619815,-0.70869394,0.020009619,-0.100689572,0.389537504,-0.072743601,1.796844711,-0.784570331,0.097874936,-0.128772881,0.56604505,-0.134602177,0
3132,3132,1.06793959,-0.725835126,0.09281653,-0.042686571,0.405672327,-0.060187087,0.679874602,-0.256815034,0.097473523,-0.062114401,0.255775061,-0.048742532,1.627891525,-0.572052062,0.047037165,-0.041876109,0.252633866,-0.146234201,0.114128653,-0.394356483,0.019022816,-0.003014972,0.029741352,-0.080134563,0.422572765,-2.305755529,0.077985318,-0.037780855,0.429067932,-0.075731935,0.168912888,-0.869110312,0.023219168,0.0,0.09511067,-0.086523139,0.038165468,-0.412977627,0.055663998,-0.074941921,0.198345006,-0.0527474,0.184058994,-0.137357804,0.015354654,-0.103411297,0.007646122,-0.223570664,1.197101098,-0.642592765,0.022614985,-0.017240497,0.230795403,-0.068532717,0.367777098,-0.089059935,0.019287506,-0.0040899,0.065384702,-0.030317515,0.627778162,-0.330252697,0.096311067,-0.062593844,0.263419128,-0.033686796,0.105283076,-1.226012233,0.090287898,-0.057151208,0.328535622,-0.043037081,0
3638,3638,0.550649246,-0.094367208,0.052948289,0.0,0.031084123,-0.274613825,0.26621329,-0.301436027,0.01189296,-0.08156386,0.0,-0.384253404,0.120394461,-0.708248644,0.012258356,-0.010528764,0.037907092,-0.097011853,0.181400265,-0.237496597,0.034920006,-0.060211192,0.0,-0.299050371,0.273320941,-2.44567777,0.012806914,-0.013032141,0.063134862,-0.323489907,0.304853398,-0.250740286,0.007078701,-0.070282152,0.0,-0.398929141,0.565432765,-0.492891064,0.02480572,-0.015175284,0.033579175,-0.16427535,1.069109299,-0.377160011,0.053766047,0.0,0.038177869,-0.369869877,0.652962429,-0.113819173,0.057833173,-0.001595927,0.012913109,-0.330656053,0.439911766,-0.535323011,0.095961331,-0.014238563,0.150240202,-0.228940225,0.430793336,-1.237197143,0.055840504,-0.049500968,0.024149739,-0.299518836,0.372506335,-1.515438319,0.078394751,-0.051858812,0.0,-0.405792886,2
1705,1705,0.30112991,-0.079695765,0.02276736,-0.011097605,0.050357261,-0.047462434,2.164019382,-0.246726793,0.10456511,-0.054662414,0.415373331,-0.115679352,0.04207301,-0.07577968,0.022095606,-0.013915319,0.021726887,-0.049769632,0.151148568,-0.121732566,0.023859143,-0.012497561,0.033135653,-0.06718188,0.222824127,-0.082591269,0.02271332,-0.01007596,0.0460673,-0.042699698,0.001367473,-0.329429049,0.018327764,-0.020955611,0.050239265,-0.045459867,1.704402,-1.431901319,0.043605533,-0.028738855,0.343071096,-0.200726604,0.388930806,-0.112225335,0.021268517,-0.010576833,0.088481425,-0.008551843,0.224949489,-0.218257345,0.026095079,-0.013108215,0.059388341,-0.071162338,0.140915437,-0.043338928,0.025659944,-0.012322691,0.047091838,-0.049632347,0.53453104,-0.353054892,0.01898324,-0.017239999,0.061499591,-0.087544333,0.963118583,-1.049408414,0.08726173,-0.04428656,0.381265904,-0.068722288,0
3473,3473,0.292494837,-1.482811155,0.008946734,-0.076987355,0.027062812,-0.430339197,0.692389276,-0.221427766,0.021530592,-0.081280372,0.063741526,-0.232509453,0.35461586,-0.343278037,0.023451521,-0.072116125,0.05335787,-0.171739319,0.882625915,-0.620291037,0.103695803,-0.052275372,0.278462298,-0.010655737,1.528479051,-0.474276032,0.022132455,-0.036412792,0.239180537,-0.102559238,0.601726949,-0.250827482,0.023132796,-0.084910976,0.059829177,-0.202439357,0.0,0.0,0.0,0.0,0.0,0.0,0.0,0.0,0.0,0.0,0.0,0.0,0.0,0.0,0.0,0.0,0.0,0.0,0.0,0.0,0.0,0.0,0.0,0.0,0.0,0.0,0.0,0.0,0.0,0.0,0.0,0.0,0.0,0.0,0.0,0.0,1
3526,3526,1.223282999,-0.015767218,0.091505594,-0.056312908,0.44866744,-0.007591137,0.335243534,-0.571156809,0.071279845,-0.02996034,0.287919709,-0.124446441,0.127367609,-1.109428417,0.043585837,-0.0181877,0.137043573,-0.151254982,0.105156052,-0.110787072,0.029593816,0.0,0.118181985,-0.059345364,0.711831425,-0.920122123,0.104841656,-0.109000755,0.052557634,-0.379613241,0.148673496,-0.757748459,0.058094637,-0.023361746,0.229280639,-0.113926544,3.537237177,-1.299119503,0.096251289,-0.083572036,0.210560808,-0.613708646,0.991699171,-0.147756745,0.118102862,-0.107861643,0.384656008,-0.305154186,0.997481224,-0.233570386,0.077669674,-0.035933373,0.277087463,-0.097486244,1.408327433,-0.001568469,0.075391464,-0.039648303,0.311187054,-0.101286086,0.95599309,-0.058332097,0.074010677,-0.045320356,0.285956562,-0.128709313,1.496125492,-0.031452076,0.077559004,-0.03888389,0.318130338,-0.155982518,1
2982,2982,0.432171526,-0.55945244,0.033785427,-0.014914735,0.005418535,-0.162066236,0.861253797,-0.487685782,0.023639471,-0.009010715,0.091250836,-0.133489749,0.071726779,-0.534770843,0.019409644,-0.005020566,0.016478844,-0.107551387,0.23127598,-0.498335688,0.029833071,-0.007004809,0.0,-0.151663316,1.44980864,-0.439383216,0.018561543,-0.111980622,0.096080649,-0.361993791,0.78155325,-0.292599698,0.020831828,-0.007629132,0.078383561,-0.112934649,0.377251404,-0.042498418,0.009930722,-0.003745152,0.055690521,-0.035213027,0.020211102,-0.041201678,0.007517384,-0.001122832,0.004927249,-0.0317998,0.051412336,-0.11319953,0.008090747,-0.002645074,0.015347286,-0.033577488,0.738128295,-0.071590308,0.012477578,-0.003160118,0.099623266,-0.046960097,1.67848724,-0.444350965,0.013315794,-0.014683252,0.235717525,-0.082479675,0.522413257,-0.156933115,0.028289141,-0.032914838,0.092153489,-0.113794977,0
3961,3961,0.730904004,-0.996205186,0.016486589,-0.012603695,0.237527574,-0.002182629,0.753649509,-0.022603985,0.029988649,-0.010524504,0.121092298,-0.036068971,0.43975876,-0.103583394,0.029297006,-0.007013963,0.088549683,-0.043635519,0.414315698,-0.054140614,0.018414856,-0.012147911,0.070055092,-0.017927606,0.178064266,-0.521572202,0.089646922,-0.147648973,0.131985341,-0.284395338,0.514559062,-0.112517921,0.029457468,-0.0084251,0.097906666,-0.043988301,0.316105267,-0.113358821,0.044567672,-0.064021576,0.0,-0.273553221,0.649996169,-0.468885166,0.043805206,-0.072343224,0.136621266,-0.278750931,0.086006033,-0.273486304,0.010662952,-0.080551932,0.027889313,-0.268316242,0.064815797,-0.317985034,0.031995736,-0.095750961,0.085745222,-0.238105,0.212885958,-0.397435583,0.02321743,-0.017595849,0.14629468,0.0,0.167431348,-0.243278941,0.024576516,-0.018063724,0.050982809,-0.044132793,3
1742,1742,0.338851059,-0.395414037,0.020165514,-0.006722863,0.0469243,-0.105413934,0.049158332,-1.973273816,0.033025088,-0.048257562,0.01372488,-0.362663029,0.053017639,-1.970392376,0.032599355,-0.053130868,0.011591688,-0.389322489,0.052932928,-1.910024163,0.032881532,-0.041242323,0.017627391,-0.321755058,0.064768376,-1.596643237,0.005617826,-0.056876582,0.0,-0.410276884,0.068391414,-1.967451122,0.032847018,-0.050946291,0.014391799,-0.37697085,2.199596218,-2.065424283,0.125822937,-0.04897053,0.685768114,-0.206270284,1.878191808,0.0,0.004256789,-0.011438017,0.270126556,0.0,1.588429028,-2.639264242,0.0,-0.116573759,0.373557125,-0.477192576,0.878915759,-0.942901122,0.026830573,-0.050552524,0.204795846,-0.247211444,0.206061797,-1.66217026,0.071100314,-0.079081887,0.1286555,-0.183845224,0.849327748,-0.525515505,0.045801333,-0.045820703,0.116887154,-0.133005579,0
964,964,0.258045967,-0.318324799,0.034268588,-0.0188847,0.018574625,-0.085312986,0.106722256,-0.421261492,0.05007316,-0.011960898,0.058380382,-0.109321284,0.328192037,-0.103979675,0.094405537,-0.027771662,0.047912283,-0.113501101,5.44033442,-0.05218977,0.048429843,-0.043943381,0.298808695,-0.464490053,0.741566403,-0.452543024,0.101486595,-0.05463336,0.445906523,-0.076994395,0.136442423,-0.175816193,0.079449032,-0.021532761,0.060692116,-0.109385369,2.341237945,-0.181773328,0.013137118,-0.065772199,0.0,-0.426603662,0.87431869,-1.81458658,0.075820769,-0.071440888,0.25440985,-0.1952838,1.627312299,-0.948017293,0.083746803,-0.031917395,0.235138659,-0.186246392,0.174038336,-0.113791188,0.04170668,-0.026840354,0.004136471,-0.064419012,1.958711828,-1.675298428,0.047118221,-0.041011183,0.072178453,-0.527772908,0.425078665,-0.064968802,0.056457321,-0.033587774,0.002817391,-0.09990416,0
1127,1127,1.205041892,-0.131155873,0.017864401,-0.022524433,0.141335586,-0.092620514,0.123983238,-0.283930669,0.015824285,-0.028172369,0.040425247,-0.105935222,1.237613264,-2.715868637,0.083922816,-0.033694961,0.523461556,-0.088394355,0.142332515,-0.503205743,0.012610692,-0.028116764,0.033598283,-0.128708852,1.175615069,-0.569337372,0.063878129,-0.063780859,0.302585637,-0.036909789,0.219190264,-0.361196238,0.017797957,-0.029560975,0.049623956,-0.121234108,1.015534431,-0.230354609,0.021932469,-0.071736003,0.095646336,-0.141823142,0.073747845,-0.574092354,0.043448627,-0.091841553,0.0,-0.503798612,0.215289364,-1.10568981,0.000559563,-0.03196325,0.077597471,-0.215503587,0.716157008,-0.816376307,0.011289366,-0.024056124,0.065809954,-0.165990787,0.777825009,-0.645301788,0.013464388,-0.024902441,0.132250363,-0.101732209,0.727435276,-0.234469103,0.014914596,-0.022478907,0.080482802,-0.109355874,0
1023,1023,0.0,-3.104139937,0.012105421,-0.029664737,0.0,-0.444897566,0.296791835,-2.183989807,0.014051328,-0.038448779,0.050549444,-0.3417303,0.06104172,-2.465822224,0.007729105,-0.032179535,0.013672353,-0.369252281,0.734822398,-1.448263253,0.051307891,-0.050269273,0.157017634,-0.239397281,0.0,-2.582115978,0.008061462,-0.029241417,0.0,-0.383636115,0.151064778,-2.350965441,0.008425685,-0.034395062,0.025309611,-0.357923844,1.556281953,-1.68229814,0.041715811,-0.050278888,0.125528827,-0.389648714,0.775413308,-0.618333172,0.013652518,-0.004048678,0.194626325,0.0,1.734181165,-1.799549693,0.009119687,-0.011751866,0.288249311,-0.170611854,1.750574627,-0.645051961,0.055146961,-0.061971878,0.128869522,-0.300076213,2.752181313,-1.221855708,0.05990585,-0.036234445,0.237588531,-0.388152597,0.713397123,-1.708541904,0.029426651,-0.031069412,0.070076289,-0.312617085,0
3831,3831,2.136580834,-0.780259421,0.030818828,-0.063635379,0.355068356,-0.350177799,0.384672599,-0.479857392,0.030365998,-0.059254933,0.151902668,-0.137317333,0.490375102,-0.328334894,0.027117356,-0.056566193,0.155655972,-0.079106898,0.152024625,-0.415685382,0.072160107,-0.027782852,0.101997922,-0.166748637,1.586896823,-0.451401131,0.094701658,-0.039348742,0.302444847,-0.193851169,1.616070211,-0.668804095,0.029410322,-0.060930851,0.427798686,-0.118657453,0.414206974,-0.394713125,0.015190013,-0.0582011,0.109570198,-0.228684589,0.34120751,-1.528369252,0.00761132,-0.045274101,0.083110177,-0.297630754,0.19455922,-0.29683863,0.012341707,-0.043062209,0.080345868,-0.174153577,0.199621314,-0.345861835,0.017615393,-0.043766525,0.08510986,-0.151606887,0.457453146,-0.16706211,0.029166566,-0.046671652,0.145932744,-0.08251248,0.565799646,-0.494515514,0.0624642,-0.058017391,0.262054381,-0.033842345,3
7,7,0.256931126,-0.154395425,0.022844041,-0.008594106,0.029110952,-0.066838011,0.607534735,-0.003130586,0.019609514,-0.024108642,0.084005918,-0.045548035,0.576762763,-0.03420531,0.020322454,-0.037448046,0.11388722,-0.090802525,0.03238866,-0.410270477,0.040825934,-0.038942167,0.078931503,-0.116647325,0.306350882,-0.891561324,0.056708669,-0.081254829,0.198080035,-0.204914362,0.569567775,-0.012014951,0.019365912,-0.028519433,0.081639857,-0.05121725,2.26161599,-0.170282847,0.011742146,-0.070967761,0.376735887,-0.024599179,0.66724835,-0.186814637,0.038500481,-0.005108801,0.19901965,-0.075649547,0.587451541,-0.042686816,0.027651916,-0.006444569,0.135308979,-0.061773852,0.580708682,-0.03862407,0.025099112,-0.008896019,0.138756749,-0.045903884,0.712378408,-0.114895901,0.043892267,-0.01008148,0.172861465,-0.060093697,0.555519561,-0.100457391,0.04609551,-0.011523833,0.150332503,-0.058544331,0
66,66,2.117411016,-1.106940413,0.035954928,-0.031468653,0.317144825,-0.142784706,1.651343216,-0.287084876,0.042790385,-0.006687847,0.2625847,-0.04894366,0.885300793,-0.706657568,0.036047274,-0.02484407,0.177412683,-0.082534843,1.224687222,-1.102381344,0.05172914,-0.02931931,0.136173473,-0.341518499,1.852461661,-0.677017152,0.021014553,-0.01296906,0.333701021,-0.015711418,0.689895962,-0.654089164,0.044440348,-0.010078408,0.243476975,-0.030898258,0.759602026,-1.114722475,0.030596945,-0.03385396,0.277238187,-0.108685611,0.687078509,-0.756154618,0.014594863,-0.015704084,0.040501655,-0.170410753,0.174737882,-0.2210739,0.011950166,-0.009333044,0.019927619,-0.05090089,0.190172449,-0.192636372,0.007307874,-0.004652461,0.020976933,-0.047826912,1.063759808,-0.623664537,0.04197432,-0.005734646,0.274354519,-0.029337494,0.210581134,-0.392142841,0.044829947,-0.005605992,0.183711094,0.0,0
526,526,0.251089676,-0.355059316,0.029024417,-0.01491874,0.053068428,-0.086958694,1.241594778,-0.215412233,0.070616447,-0.018134636,0.372764527,-0.036830722,0.346547757,-0.751614457,0.067775462,-0.018221756,0.276293586,-0.103084939,5.914565499,0.0,0.09865939,-0.05299815,0.326414556,-0.694135792,0.73928551,-0.019851317,0.01386883,-0.035103227,0.1086151,-0.098747314,0.326757614,-1.494103113,0.092791505,-0.015802396,0.479431907,0.0,0.441351875,-0.306038923,0.038643664,-0.046733955,0.034906411,-0.123908987,0.157570726,-0.070650078,0.010171757,-0.002023062,0.047551649,-0.010699105,0.221768189,-0.307465582,0.014723053,-0.008116561,0.085130193,-0.011452953,1.622375231,-0.020343172,0.047277372,-0.007281332,0.281705712,-0.075481991,0.762531137,-0.352197344,0.048344675,-0.007495382,0.261094742,-0.018830174,1.078137368,-0.145979187,0.051763954,-0.010000965,0.293040102,-0.036749122,0
432,432,1.961939368,-0.120612151,0.047071924,-0.058973149,0.183907257,-0.177433295,0.556906335,-0.674748088,0.012572895,-0.030658041,0.0,-0.275139052,0.294187314,-0.118615085,0.012477309,-0.039690042,0.040743207,-0.129164595,1.743323423,-0.981843278,0.072543591,-0.083082911,0.081752776,-0.406523385,0.580689175,-0.556585238,0.036834848,-0.135699501,0.075492822,-0.241200714,0.477423749,-0.468000159,0.012652577,-0.035814863,0.0,-0.18685302,0.639998263,-2.897889309,0.014455568,-0.076797314,0.286885634,-0.258166313,0.525710141,-1.535596831,0.0690232,-0.123612603,0.160043238,-0.344034243,0.440965114,-0.438639856,0.04542718,-0.066673587,0.090194524,-0.164973103,1.480760607,-0.631412665,0.068171666,-0.039861711,0.068414861,-0.31942211,0.46175354,-0.410814019,0.011750733,-0.039150514,0.172264028,-0.04455784,0.555785322,-0.881561979,0.0,-0.025241322,0.16914777,-0.133207839,0
1905,1905,0.298317322,-0.573545111,0.021567404,-0.003289391,0.016629438,-0.140307729,0.149723425,-0.032977997,0.003157813,-0.000938363,0.020048765,-0.011000125,0.159245265,-0.052514756,0.001422359,-0.001058296,0.020449468,-0.008373807,0.834028708,-0.056406362,0.004782114,-0.015151902,0.007749014,-0.127724355,0.113399438,-0.055186722,0.000702857,-0.000489799,0.01540835,-0.008022171,0.168498942,-0.023295587,0.00247841,-0.001152158,0.020402514,-0.009379046,1.556804839,-2.144078218,0.010259473,-0.043833451,0.296603334,-0.197814894,0.906983059,-1.755625538,0.015046528,-0.020552104,0.479516174,0.0,0.798926052,-0.254852387,0.018774365,-0.013929966,0.095432026,-0.076649935,0.669374466,-0.164495192,0.019155282,-0.014712006,0.078571867,-0.064236423,0.369276663,-0.917475329,0.019729379,-0.014151216,0.059225895,-0.145957046,1.042505523,-0.785487581,0.039589585,-0.050621652,0.10842301,-0.187062964,0
2728,2728,0.63320927,-0.740026496,0.023185977,-0.051956278,0.221080236,-0.056432441,2.567593592,-1.480168346,0.006052763,-0.052185506,0.460177688,-0.065991836,2.187405783,-0.166191716,0.016445925,-0.040485283,0.319558291,-0.03467154,0.388173623,-1.591034387,0.016059012,-0.016462202,0.076806163,-0.194436672,0.044385901,-1.322079539,0.02390387,-0.060392021,0.108873465,-0.251807114,2.484583278,-1.398145991,0.007059552,-0.051453413,0.449268368,-0.063435419,0.226169121,-2.385017567,0.011085454,-0.072597729,0.137929057,-0.368632557,0.434089857,-1.890848014,0.043893233,-0.06468824,0.204691819,-0.255992579,2.066724687,-0.715410776,0.039488713,-0.039986493,0.30484007,-0.153028582,3.618624632,-0.514634867,0.006991541,-0.009446821,0.469292799,-0.060689315,3.754382383,-0.608888333,0.008412235,-0.021599081,0.452842153,-0.12519157,3.624154268,-0.854482374,0.011776017,-0.019377657,0.439442027,-0.143676253,0
3866,3866,0.041953927,-0.211852628,0.023824433,-0.007672265,0.030103021,-0.063907793,0.517970754,-0.691955493,0.108716096,-0.024862984,0.490523762,-0.044713205,0.282207577,-0.364617497,0.102704261,-0.071950846,0.000986617,-0.274037425,0.998794921,-1.997589842,0.099832851,-0.001291878,0.635146061,0.0,0.463724917,-1.517561858,0.02022615,-0.059852972,0.400057212,-0.058221515,0.30761188,-0.416476427,0.108323247,-0.045578829,0.288694598,-0.112033346,0.301226564,-0.513583093,0.055365835,0.0,0.040796405,-0.359906659,1.737498475,-1.261509456,0.025968878,-0.043014892,0.350668874,-0.224580805,0.053727932,-0.252996716,0.02422052,-0.003961814,0.067449094,-0.052644804,0.206851595,-0.027719733,0.020867369,-0.006915761,0.033646279,-0.060927555,1.332437426,-2.431295679,0.123479452,-0.017351367,0.684372018,-0.020217669,0.747581201,-0.100779541,0.097991195,-0.040944328,0.269475589,-0.066998206,3
100,100,0.212024819,-1.388828574,0.038553859,-0.028163699,0.258799402,-0.005668728,0.059201597,-2.373782859,0.029712829,-0.050799088,0.00720374,-0.368684638,0.258716769,-2.770606881,0.052404494,-0.055518023,0.09729717,-0.43220307,0.096382998,-1.413138118,0.041691975,-0.037071124,0.007668736,-0.238419573,0.249981258,-3.271263664,0.059329813,-0.058199461,0.121898897,-0.470088149,0.138239943,-2.629657803,0.048178302,-0.053391807,0.082152031,-0.403554513,0.697001196,-1.935215389,0.062058319,-0.052017238,0.204204019,-0.31016808,0.170325215,-1.328970241,0.047878407,-0.019226375,0.23122391,-0.093467045,0.845221875,-0.516082213,0.036094087,-0.018863235,0.139071699,-0.097035297,2.515089144,-1.81695182,0.045616754,-0.022043673,0.428986194,-0.198475284,2.597181909,-0.147428169,0.095550766,-0.103832519,0.456422642,-0.051123027,1.034601034,-2.700118545,0.055160039,-0.029997893,0.279661505,-0.422783175,0
3890,3890,0.270478903,-3.850695843,0.042531481,-0.148483051,0.314487453,-0.519013497,0.063822956,-0.513695068,0.022080531,-0.00864791,0.074304668,-0.061160192,0.46565339,-0.39933676,0.034616921,-0.002777535,0.138178894,-0.087125257,3.224074989,-2.250322072,0.078612502,-0.049248896,0.276241211,-0.559675776,0.353180003,-0.218937735,0.0,-0.169323916,0.0,-0.67565098,0.409084595,-0.151999629,0.027505636,-0.005279423,0.119557465,-0.049869253,0.164509976,-0.226916892,0.041195448,-0.071361731,0.0,-0.263084422,0.110437902,-0.174573821,0.041701701,-0.072489332,0.0,-0.331696254,0.152014326,-0.515252469,0.036216512,-0.07260542,0.0,-0.316070232,0.247001078,-0.372957487,0.049102696,-0.066553358,0.0,-0.282019524,0.391264322,-0.546104831,0.036389441,-0.064848902,0.02126263,-0.295409223,0.299539138,-0.587831995,0.048778573,-0.071641173,0.113417393,-0.141394016,3
1948,1948,0.762587279,-0.355519385,0.023086959,-0.023618232,0.0,-0.286413408,0.255672384,-0.403872388,0.039125543,-0.106601022,0.148509423,-0.190707068,2.901651635,-0.388517887,0.018752539,-0.036936929,0.337352655,-0.152769687,0.245818222,-0.453017305,0.028799628,-0.026042219,0.0,-0.297145199,1.031645273,-0.861476305,0.028164559,-0.038427204,0.230003033,-0.074524791,0.196481931,-0.220596573,0.069330926,-0.034962042,0.100419669,-0.181726799,0.507273296,-0.53091143,0.027835896,-0.022804451,0.0,-0.220372115,0.297483523,-0.526762313,0.020633064,-0.045471501,0.056867421,-0.146720877,0.268081281,-0.983080051,0.040389516,-0.048041864,0.141412731,-0.080157987,0.291366915,-0.29734242,0.030065658,-0.019246462,0.0,-0.2278442,0.692235203,-0.234543823,0.059756438,-0.036853995,0.100759996,-0.152562947,0.989789376,-0.482104703,0.082158774,-0.042409144,0.240081692,-0.045783896,0
1965,1965,1.435192933,-0.212374974,0.026894099,-0.007806452,0.196250058,-0.078002105,0.554485265,-0.321131989,0.048987046,-0.048598926,0.175544945,-0.01213408,0.42443944,-0.260765835,0.05190309,-0.061761038,0.153985429,-0.064480536,0.413088653,-0.131831127,0.018721755,-0.010050611,0.086829792,-0.027679349,0.142172719,-0.858903846,0.059389878,-0.10163872,0.094060414,-0.381119751,0.454121064,-0.276352789,0.047227906,-0.055929628,0.207429,-0.035382355,0.583468685,-0.295182684,0.05525333,-0.060278159,0.18693177,-0.104972209,1.007789984,-0.518511071,0.112861202,-0.028663679,0.275567223,-0.326641256,1.709855389,-0.259407885,0.0265683,-0.009537561,0.254081674,-0.038145179,1.82543441,-0.535677958,0.021065043,-0.008161082,0.266113247,-0.074712142,1.56919138,-0.163973739,0.018754488,-0.005817969,0.21250628,-0.04160534,0.184427097,-0.280045906,0.050375815,-0.050162631,0.16335468,-0.033601506,0
1921,1921,0.091909365,-1.581289401,0.009840876,-0.04616825,0.276134742,-0.051862608,0.815958845,-1.072041332,0.030556627,-0.052508578,0.336335367,-0.045627144,1.599286389,-1.886408912,0.014982164,-0.037335742,0.499248486,0.0,1.49229645,-1.457015361,0.025666243,-0.025590157,0.2375636,-0.195678685,0.907199993,-1.452915068,0.014909277,-0.024022957,0.395045633,0.0,3.550572825,-0.611235979,0.025044457,-0.054286653,0.645479597,-0.004894474,1.915904143,-0.060443567,0.024893009,-0.010011334,0.18560022,-0.117910528,1.145967196,-1.06003187,0.044988163,-0.032784558,0.232295655,-0.154643654,1.593095298,-0.661757074,0.035869399,-0.029742215,0.096285255,-0.269182979,0.566197895,-0.228044039,0.013229339,-0.030138069,0.258785629,0.0,1.346724521,-0.977097507,0.040970859,-0.047698677,0.3170486,-0.140380631,0.81112806,-0.904709623,0.045689089,-0.0414557,0.332956198,0.0,0
291,291,0.110841348,-0.201259771,0.014209523,-0.010138084,0.025234282,-0.059961169,0.285753073,-0.116104115,0.049696791,-0.061432345,0.113392665,-0.077495145,0.973442519,-0.216652923,0.073884672,-0.128774268,0.262678208,-0.066811854,1.570480601,-3.0613292,0.047082658,-0.100725058,0.074332014,-0.586461412,1.037271132,-2.214855415,0.058908626,-0.029496345,0.118143006,-0.400679732,0.460803176,-0.179183379,0.062510237,-0.056547186,0.170002892,-0.07459741,1.99435992,-3.390091368,0.072550721,-0.058920799,0.288609454,-0.512388662,0.946578563,-0.339709276,0.048925781,-0.01552776,0.270701747,-0.029773956,1.225767213,-0.497222,0.046588919,-0.031007004,0.254488205,-0.098625175,0.572379875,-0.595584952,0.033501621,-0.043538089,0.197433724,-0.046030845,0.747539292,-0.168591501,0.060586975,-0.008001291,0.225850722,-0.064655306,1.462713726,-0.467714591,0.019616272,-0.068610072,0.326041092,-0.089916336,0
3705,3705,0.64677605,-0.187800398,0.028917917,-0.030205908,0.080472915,-0.072966775,0.091251783,-2.439983418,0.021891883,-0.014228623,0.092223897,-0.284494794,0.092037902,-2.308479106,0.015820457,-0.016617584,0.052560566,-0.304195803,0.189794232,-0.095347015,0.027011199,-0.023906271,0.092427795,-0.036247945,0.222843786,-0.179798395,0.029923763,-0.017522046,0.085400706,-0.055567711,0.020693353,-2.428579298,0.015335296,-0.016148985,0.066211062,-0.295890548,2.634113021,-0.261280706,0.054661652,-0.058836075,0.237409785,-0.331601412,0.0,-1.650303313,0.020249236,-0.025264258,0.0,-0.240422702,0.851420219,-0.206964401,0.015501338,-0.018733206,0.109664897,-0.07431351,1.846263351,-0.274307507,0.014996362,-0.031253737,0.311844611,-0.069415724,0.600768618,-1.669831886,0.021647682,-0.030149648,0.103711496,-0.245705724,0.190180132,-0.004213936,0.007754822,-0.002137901,0.006795416,-0.039724746,2
1159,1159,0.966290645,-0.31790278,0.019594499,-0.022547426,0.208901078,0.0,2.507121868,-0.517306768,0.026837042,-0.042223926,0.390120159,-0.036097028,4.956575501,-1.20733671,0.106438755,-0.105489574,0.659436213,-0.225422,0.570760206,-0.274324036,0.009665559,-0.001535051,0.069837563,-0.048471896,4.006028011,-2.211306137,0.012471955,-0.029188599,0.706528158,-0.109458833,4.322796079,-0.709034237,0.025593765,-0.075913914,0.586024114,-0.13242101,1.202881084,-0.204451821,0.036148768,-0.043549784,0.202234801,-0.169195141,0.079230595,-0.353496809,0.005745532,-0.039246665,0.077053906,-0.061071861,0.997571359,-1.141350313,0.014811234,-0.044062424,0.246269749,-0.202120392,1.024841509,0.0,0.006651827,-0.036344818,0.19731547,-0.037116407,1.325980441,-2.819639762,0.037207935,-0.009740664,0.168957157,-0.459983131,2.694493167,-0.84669215,0.029729726,-0.046472883,0.294346783,-0.23631562,0
3875,3875,0.051046616,-3.063034286,0.024653245,-0.014020837,0.057001252,-0.400695865,0.047321738,-1.171155717,0.033046418,-0.010983766,0.012717361,-0.174991958,0.109634783,-0.290406834,0.017759577,-0.017283173,0.056658672,-0.018998514,0.05461818,-2.27267884,0.026310136,-0.011724531,0.007071378,-0.322260088,0.072559998,-2.578246695,0.046866916,-0.019808562,0.0,-0.460475373,0.848539548,-0.083982578,0.091199627,-0.018915899,0.207102739,-0.057692355,0.632615529,-2.681917927,0.014003348,-0.025257191,0.093228122,-0.339940628,0.0,-1.847852539,0.002593039,-0.012193937,0.224229986,-0.056253108,1.798820328,-0.432942141,0.015884665,-0.016871301,0.256646271,-0.12170671,0.594746609,-1.791233385,0.031312399,-0.046289081,0.088213042,-0.307524856,0.046174582,-2.670134193,0.023972343,-0.023988341,0.025927674,-0.354572464,0.178844,-2.98018875,0.014294762,-0.017575644,0.074057397,-0.352865129,3
1554,1554,0.065581203,-1.425760163,0.005917335,-0.0692613,0.044485388,-0.379679899,1.179721577,-0.847958645,0.041545866,-0.044805007,0.186232231,-0.183841987,4.441596714,-0.257831286,0.016193855,-0.022146568,0.557004737,-0.116029514,3.527686644,-0.541051331,0.019364276,-0.016093282,0.36023609,-0.193652495,4.592284328,-0.052181448,0.040296285,-0.039781255,0.563494142,-0.135722926,1.897047779,-0.624988258,0.004884165,-0.026060552,0.205066148,-0.130022374,0.159118309,-2.830332027,0.041408365,-0.109130199,0.256247229,-0.446364296,0.170671519,-0.744480098,0.013338351,-0.077954458,0.197093695,-0.28431767,0.99644899,-1.939381315,0.025152,-0.011963322,0.172867914,-0.228228235,1.442680244,-0.850196688,0.014992045,-0.054605296,0.245254728,-0.207362977,0.972012335,-2.034731419,0.011112908,-0.085698797,0.169290532,-0.448183351,0.50052461,-2.211889455,0.035864548,-0.006684199,0.096539785,-0.355734122,0
983,983,0.241195898,-0.300270379,0.043847768,-0.004155708,0.192113379,0.0,0.18071031,-0.189703283,0.025619062,-0.016533808,0.05178852,-0.026539983,0.466655037,-0.153525597,0.007036253,-0.041526233,0.0,-0.198817698,0.811006899,-0.369905674,0.048701886,-0.113135183,0.296899948,-0.113135183,0.439754264,-1.053808573,0.020208611,-0.007002546,0.050369652,-0.179433122,0.239000079,-0.152827552,0.019352802,-0.023160964,0.033348263,-0.06107459,0.44965291,-0.451600564,0.042647754,-0.042647754,0.098014476,-0.085295507,1.746386375,-0.219432198,0.015372645,-0.005460831,0.268078449,-0.01422598,0.291760326,-0.813408976,0.019968092,-0.010532416,0.063028839,-0.096988413,0.137603885,-0.537052367,0.037796453,-0.010245333,0.18609302,0.0,0.100349717,-0.522121211,0.029919834,-0.013416395,0.105242905,-0.010744725,0.118872039,-0.562595802,0.024607642,-0.012632898,0.086931445,-0.029332587,0
1651,1651,0.062257839,-2.293204642,0.073353985,-0.032326823,0.157200296,-0.299326794,3.851923861,-0.697339948,0.040863799,-0.032582853,0.524447788,-0.103367713,0.273455102,-0.092631441,0.012890965,-0.009392642,0.07092297,-0.012951498,0.735457582,-1.370542946,0.056741339,-0.045198601,0.212163102,-0.15597526,1.077205255,-1.678341266,0.069137435,-0.014606767,0.209489109,-0.339689883,3.16271021,-0.621635575,0.018014256,-0.033488061,0.502943219,-0.0209141,0.624482058,-1.493005191,0.063855263,-0.022860125,0.123992216,-0.358956129,0.728986533,-0.384452918,0.025497587,-0.014116347,0.093248699,-0.090747503,0.731092549,-0.840293111,0.023963674,-0.01793506,0.055060526,-0.213383606,0.494104923,-1.128028041,0.029004989,-0.043249,0.115267272,-0.153128993,0.393706969,-1.050215293,0.054540431,-0.051605095,0.064934376,-0.215280346,1.031162748,-1.195912911,0.056920519,-0.00814743,0.1275703,-0.280417637,0
2960,2960,1.16075155,-0.73298071,0.016977158,-0.027813163,0.121409267,-0.184334418,1.020279846,-0.660079615,0.019512446,-0.016961086,0.17950906,-0.075011582,0.206904868,-0.072447606,0.01440338,-0.022131604,0.089086333,0.0,0.285252329,-0.017357743,0.034714116,-0.035199155,0.075567749,-0.069852845,0.342556194,-0.106828271,0.023385902,-0.003389076,0.100890015,-0.037200198,0.203988999,-0.062964809,0.016423555,-0.01775783,0.140141028,0.0,3.56681115,-0.163975384,0.006980966,-0.036381333,0.549902893,-0.039756417,1.214247622,-0.129006923,0.012120035,-0.011997947,0.170420404,-0.026580513,1.572568797,-0.276464705,0.017766508,-0.028727029,0.166495641,-0.162999555,0.871140908,-0.051779775,0.008890811,-0.009723407,0.069079288,-0.077862378,0.581809845,-0.072501531,0.00494046,-0.007735999,0.043155463,-0.05945076,0.576768287,-0.088965107,0.004902013,-0.008579196,0.049183365,-0.060364084,0
1500,1500,0.679949319,-0.358765072,0.106982797,-0.071752264,0.320339848,-0.054275861,0.591707057,-0.184473649,0.053953707,-0.117211598,0.097843606,-0.255011405,0.705130555,-0.65358648,0.04719108,-0.124932518,0.0,-0.602922529,0.150452759,-0.380643067,0.047726584,-0.095959417,0.101937924,-0.171514481,0.723723015,-0.522060996,0.048185085,-0.034916317,0.152523077,-0.180091148,0.601232215,-0.12556781,0.051505693,-0.125635524,0.025731954,-0.40520729,0.383749254,-0.299759968,0.023878585,-0.090341499,0.0,-0.413122851,0.957580523,-0.227836252,0.02706506,-0.020023273,0.177265124,-0.07140392,0.844679832,-0.086820339,0.040283562,-0.016199047,0.166673158,-0.120324262,0.764878106,-3.618659836,0.128672264,-0.091749375,0.542540646,-0.20993899,1.410166295,-0.567293931,0.052182757,-0.12196439,0.236725361,-0.249843263,0.254643409,-0.318990925,0.038682933,-0.117042403,0.0,-0.399032352,0
1655,1655,0.280030343,-0.216459151,0.017020335,-0.018556594,0.026339989,-0.071560301,0.293276826,-0.577380544,0.070774329,-0.045523667,0.25484911,-0.063186267,0.441863535,-0.345218745,0.035064344,-0.076348195,0.088570302,-0.171784765,0.277101085,-1.285431908,0.104321158,-0.036506504,0.449993019,-0.058645677,0.846948644,-0.161025847,0.008936129,-0.024538614,0.00513396,-0.149758935,0.269329163,-0.327025755,0.064820199,-0.05635689,0.098459306,-0.102502328,0.484882971,-1.582862773,0.042436787,-0.041678951,0.296821957,-0.032551624,1.851348907,-0.646507177,0.018689433,-0.024111736,0.269939344,-0.121463136,1.311650936,-2.593567462,0.025573387,-0.046038775,0.396269101,-0.129906863,2.792814251,-0.73517826,0.071566269,-0.010254213,0.488517679,-0.065512919,2.017649275,-0.752342946,0.086893716,-0.036513628,0.418685833,-0.134223052,1.055733546,-0.797167618,0.089164457,-0.048260424,0.38917526,-0.049862808,0
1536,1536,0.351445423,-0.090918601,0.022604789,-0.029026889,0.050725028,-0.06175042,0.339160321,-0.498804113,0.082864995,-0.04700645,0.253333331,-0.031563173,0.206789414,-0.134158022,0.06541344,-0.060957959,0.160645257,-0.086341818,2.823537756,-0.205971862,0.084811745,-0.06243713,0.0,-0.584707144,0.679235333,-0.573663981,0.033918444,-0.031898409,0.0,-0.237459393,0.466486453,-0.123563395,0.074865157,-0.054898986,0.263335231,-0.061021623,1.076431583,-0.786860303,0.037998021,-0.065655287,0.021210566,-0.338452851,1.060329924,-0.218596461,0.009245177,-0.002129797,0.173077006,-0.03238303,1.253552101,-0.173977638,0.049255134,-0.008439724,0.333816914,-0.020319704,0.759461954,-0.328088782,0.047386025,-0.011107319,0.24300487,-0.043914534,1.258012444,-0.106965738,0.071485035,-0.010154727,0.347472046,-0.023011764,1.44434509,-0.528276699,0.07729014,-0.013098016,0.366514074,-0.083569528,0
2627,2627,0.334899153,-0.115576628,0.053155502,-0.038816741,0.338908486,0.0,0.369867218,-0.309634987,0.128690552,-0.027535629,0.474000622,0.0,0.004652583,-0.613907827,0.106948777,-0.028769047,0.498356279,0.0,0.559100208,-0.068226794,0.073663014,0.0,0.158944526,-0.208833354,0.212255953,-0.316134527,0.101443687,-0.023093334,0.470945364,0.0,0.170317469,-0.528410236,0.121420253,-0.030934138,0.481501052,0.0,0.382856395,-0.23314408,0.03024581,0.0,0.080030595,-0.143473032,0.907210044,-3.465419907,0.108095538,-0.0431856,0.537406426,-0.091004903,0.912598211,-0.400272562,0.064717145,-0.050540768,0.107523739,-0.256892142,0.252493184,-0.312291208,0.0827057,-0.128927286,0.102171593,-0.265455765,0.213812224,-2.054775184,0.110083674,-0.050350526,0.398071556,-0.018811489,3.368775155,-0.281505818,0.020725693,-0.066358298,0.542255314,-0.000761042,0
2505,2505,1.128768145,-0.20661302,0.041458613,-0.03808383,0.12525485,-0.12444604,0.413736379,-0.391592121,0.018249573,-0.010039759,0.004519103,-0.129917852,0.127494278,-0.254722448,0.031877181,-0.007182792,0.0,-0.119064865,0.076947706,-0.539234436,0.026679958,-0.018858065,0.0,-0.136433217,2.7980142,-2.303702553,0.078886531,-0.094926743,0.501603425,-0.427381023,0.370363879,-0.161519966,0.018327211,-0.005875229,0.0,-0.113242783,0.45574948,-0.131608619,0.008850968,-0.024718586,0.081359712,-0.02088227,0.854689875,-0.405535288,0.018622752,-0.009425072,0.14351602,-0.057340546,0.492177977,-0.095420107,0.018590562,-0.008036383,0.071743978,-0.053432727,0.407148265,-0.133044274,0.020968677,-0.010377182,0.05266759,-0.06182302,0.101617487,-0.229132117,0.020218321,-0.011650525,0.011877559,-0.055042456,0.370479046,-0.273600281,0.087514362,-0.031495328,0.571920547,0.0,0
359,359,0.558628798,-1.739546364,0.093252789,-0.019297527,0.298948544,-0.211069038,2.029611286,-1.165418769,0.02154299,-0.025409642,0.327017984,-0.110607983,1.557360483,-1.687344874,0.017751407,-0.047490425,0.257297879,-0.203080651,2.110492289,-1.07200874,0.013982109,-0.035088767,0.350885694,-0.109239395,0.307761703,-2.044943844,0.011974995,-0.066898172,0.046950424,-0.366035868,1.523666179,-1.742769801,0.019336457,-0.032040582,0.308300098,-0.157716733,0.0,-3.63185477,0.037106502,-0.025358967,0.148316603,-0.35847897,2.163710057,-0.217944504,0.018256323,-0.042812331,0.348512099,0.0,0.822353802,-0.09238698,0.008212354,-0.010850114,0.134501191,-0.021989293,0.065883294,-4.406546621,0.040857553,-0.059861965,0.193317168,-0.496228158,0.241767785,-0.3296783,0.007735168,-0.011543104,0.057643387,-0.03750739,2.108246582,-0.410853908,0.040167631,-0.063827776,0.317413479,-0.087872639,0
3326,3326,2.889554055,-0.075082537,0.138781017,-0.082694259,0.560736224,-0.042859433,0.256811279,-0.216289315,0.110340799,-0.019496435,0.434525278,-0.046345021,0.109039127,-1.462765402,0.004883136,-0.062769836,0.125803342,-0.313424099,0.212464429,-0.34874681,0.081879909,0.0,0.0,-0.57831935,3.122227525,-0.262275743,0.184483463,-0.111980103,0.549957046,-0.072944275,0.558847894,-0.283173801,0.094895036,-0.043214908,0.194046,-0.16151221,3.882741083,-1.194807257,0.033484015,-0.080862295,0.613045968,-0.194322158,0.585395183,-3.850570031,0.143546025,-0.135259153,0.210550053,-0.703793977,1.14729809,-1.029271244,0.035615535,-0.065675537,0.1737782,-0.187643537,0.220752492,-0.430023746,0.098594765,-0.088097561,0.034696025,-0.233675618,0.357238531,-1.829885143,0.043776052,-0.047770509,0.218071667,-0.16100094,0.0,-2.991895679,0.038254689,0.0,0.0,-0.468433839,0
837,837,0.475344513,-3.261322247,0.01165809,-0.040150972,0.104649861,-0.416852962,0.538990702,-0.584929909,0.027663358,-0.030357938,0.139045198,-0.112847384,0.854735897,-3.092244759,0.003389206,-0.031938213,0.149355,-0.39024881,2.795619467,-2.296701547,0.018456276,-0.041319684,0.316444825,-0.350178065,0.481164199,-3.045211794,0.010455701,-0.041935007,0.096358226,-0.402139757,0.411769685,-2.814073432,0.0,-0.029751258,0.070538182,-0.415602397,0.312969848,-0.558197452,0.009988154,-0.041433682,0.17918126,-0.049192952,1.560436358,-0.336664388,0.045275352,-0.003282551,0.323113115,-0.018989412,0.225349697,-0.197775458,0.024781242,-0.009476022,0.076167081,-0.036345902,0.299120642,-1.010933091,0.023162868,-0.022423627,0.088338122,-0.160700945,0.246566869,-0.654890317,0.023614209,-0.033762549,0.098167596,-0.107880069,0.180968403,-0.409108606,0.023014034,-0.028504449,0.05851346,-0.113158276,0
2654,2654,0.952803875,-0.44008697,0.039333039,-0.033972723,0.200586293,-0.055119231,0.523536815,-0.974131164,0.120052183,-0.091096224,0.334416936,-0.14713882,1.679172883,-1.677847304,0.117219473,-0.077484645,0.476205496,-0.23689038,0.007139031,-2.035356683,0.061693506,0.0,0.128921065,-0.448235508,2.331834406,-0.738761303,0.065277282,-0.0077425,0.537709791,-0.038838183,0.23380663,-2.288145756,0.119131987,-0.090123872,0.381061659,-0.239252324,0.234468024,-2.632048147,0.038503918,-0.005910654,0.064931129,-0.409709944,0.626718461,-1.721772525,0.039898107,-0.034385006,0.085266055,-0.33053937,0.0,-2.331335545,0.020137279,-0.010267366,0.0,-0.341577078,0.0,-3.039810355,0.025848293,0.0,0.0,-0.445484966,2.376834793,0.0,0.007457405,-0.013022675,0.337430919,0.0,2.203982962,0.0,0.0,-0.009491353,0.304872939,0.0,0
1723,1723,0.200743927,-0.400443734,0.018439656,-0.034521991,0.0,-0.247090786,0.484286042,0.0,0.0,-0.003676943,0.071215737,0.0,0.321357729,-0.134961098,0.014355417,-0.030037696,0.050406588,-0.044497573,0.733471179,-0.151595347,0.001740482,-0.003727796,0.102721116,-0.02374312,3.692324042,-0.053056362,0.091347662,-0.00962642,0.638095456,-0.047657413,0.303445465,-0.159762141,0.014046384,-0.008987963,0.042929996,-0.044135143,0.197452907,-0.085539814,0.004902943,-0.007771543,0.031908617,-0.019328182,0.128951018,-0.169564787,0.003349967,-0.005878675,0.024324399,-0.024183933,0.172808031,-0.058036693,0.004975825,-0.006149304,0.0314703,-0.014129652,2.022153173,-1.753342295,0.088193105,-0.059738297,0.252129005,-0.300137693,0.260592165,-2.742503569,0.025543244,-0.047317802,0.067348884,-0.39737413,0.383442281,-0.038110495,0.008724129,-0.017628741,0.054145566,-0.01498817,0
3346,3346,0.149049914,-0.180445933,0.010909935,-0.003990213,0.0,-0.08087604,1.013352729,-1.897183402,0.019279553,-0.024162222,0.092854221,-0.353419977,0.033411197,-2.873644659,0.005116273,-0.033315072,0.016811246,-0.44311334,0.641527849,-1.326790228,0.024199864,-0.014626663,0.038751974,-0.243526121,0.11855085,-0.751889106,0.012485203,-0.065016436,0.005107693,-0.300921821,0.272031725,-2.593203111,0.012988451,-0.028441907,0.04355188,-0.393020351,1.068254416,-0.250164841,0.109564992,-0.114916113,0.118590679,-0.263264136,0.169420754,-0.293651758,0.051216063,-0.039412557,0.079540499,-0.104234141,0.508004722,-1.247016932,0.026532634,-0.025008363,0.057995257,-0.225548711,0.416707626,-2.210343027,0.017467857,-0.025900459,0.06712029,-0.323024967,0.762532867,-2.349015232,0.021117423,-0.024607889,0.123350063,-0.340130224,0.151496274,-3.195013861,0.026306221,-0.004502465,0.021483009,-0.4693978,0
2920,2920,1.748459625,-2.445603199,0.030032518,-0.062683015,0.388435124,-0.241149313,2.809833269,-2.652142363,0.063209871,-0.116022198,0.600636446,-0.344174643,0.823802567,-1.85809637,0.058155077,-0.016537712,0.048870715,-0.353405046,2.759798709,-2.539891866,0.065267064,-0.11170841,0.583002503,-0.348385007,0.720841925,-2.911855438,0.044237556,-0.030617855,0.074025271,-0.456192158,2.798267486,-2.686096665,0.060906326,-0.116903022,0.600698047,-0.347643998,1.963722253,-1.235627568,0.000215744,-0.077360265,0.438370115,-0.1625488,1.729548122,-1.216391888,0.02373149,-0.048484008,0.290473353,-0.257673542,1.112134254,-0.326095385,0.011086637,-0.027749737,0.164610451,-0.062864649,1.521778964,-1.411018928,0.034689605,-0.075881744,0.151757139,-0.307400856,2.018874376,-0.427919925,0.003582796,-0.036497961,0.357573048,-0.05033912,0.775397684,-3.30896262,0.037648451,-0.030997165,0.156168597,-0.422909222,0
1623,1623,0.685341185,-0.323827941,0.126460102,-0.103617232,0.278706207,-0.159480447,2.037462971,-0.535790424,0.130564609,-0.108848664,0.388497354,-0.249024077,0.419387887,-1.958776096,0.050259111,-0.096457981,0.253499546,-0.285254614,0.714541341,-0.874738743,0.128858793,-0.111041955,0.37228431,-0.137875806,1.271376336,-0.839570306,0.121440045,-0.122112332,0.198920861,-0.395789153,1.111287783,-1.296793108,0.069644778,-0.111370135,0.330131173,-0.288839356,1.602231237,-0.7096676,0.030179941,-0.099133822,0.261305575,-0.403511579,1.3437495,-1.366601304,0.063117132,-0.085172619,0.192946949,-0.265024502,0.225213395,-0.895108653,0.06694389,-0.051482757,0.190882607,-0.155456295,0.596238104,-1.333732801,0.071719999,-0.055812164,0.233313018,-0.152336047,1.558550572,-0.433336747,0.134609963,-0.134185548,0.366452037,-0.276286254,0.579572156,-0.6048285,0.122626422,-0.089927866,0.285368187,-0.004555122,0
96,96,1.522820743,-2.834021459,0.026898371,-0.030165408,0.075904663,-0.499086502,1.26423721,-0.254780257,0.020843338,-0.016947871,0.197628288,-0.047076056,0.266795439,-0.390399499,0.018055361,-0.020169251,0.060072299,-0.055820156,0.199759042,-3.80969513,0.021987481,-0.03288501,0.0667036,-0.471270718,0.349774321,-0.652122192,0.017629894,-0.020832789,0.079019054,-0.127392272,0.773278228,-0.269134262,0.021084414,-0.018972288,0.120741174,-0.05661177,0.216505858,-2.948559048,0.03323056,-0.044626568,0.101418414,-0.403646118,0.635797991,-1.036412587,0.06064565,-0.020797978,0.080336796,-0.300114321,0.123704388,-0.333672692,0.008240286,-0.013863948,0.072567953,-0.019631299,0.389673659,-0.381478949,0.018144077,-0.00989602,0.075715365,-0.045171755,0.342187441,-0.684374882,0.017947838,-0.028813201,0.112513875,-0.050501839,2.230614521,-1.471691746,0.035318889,-0.041907436,0.318058973,-0.187294276,0
382,382,0.366256495,-0.41533241,0.023279563,-0.004466893,0.069639915,-0.099213043,0.500449012,-0.507591492,0.019414604,-2.82e-05,0.056277353,-0.158490167,1.408932233,-0.440169206,0.01593084,-0.050859865,0.183480109,-0.076012268,0.561849224,-0.518705008,0.106973206,-0.054562994,0.36808731,-0.26190729,1.065672222,-0.631982282,0.018896477,-0.012090602,0.133688417,-0.128720647,0.73237744,-0.939678239,0.02895973,-0.001404446,0.085796355,-0.189663097,2.038055919,-0.789264792,0.056014352,-0.084580801,0.357752458,-0.142944035,0.685913386,-0.437515629,0.026475281,-0.004762745,0.070922908,-0.164623965,0.937489144,-0.771065058,0.050139059,-0.060499057,0.270634859,-0.194907031,0.490466111,-0.172090147,0.018773015,0.0,0.047167058,-0.136480484,0.361925839,-0.327453383,0.012716175,-0.000646097,0.008581224,-0.102654526,0.451721782,-0.197873671,0.021058041,-0.000314014,0.05903012,-0.098613396,0
1898,1898,1.638391685,-0.009486223,0.001493627,-0.040760724,0.249808216,-0.002968806,2.537667068,-0.018705747,0.009996421,-0.051096138,0.368985491,-0.004877508,3.530370929,-0.218725199,0.029113611,-0.089344634,0.542775048,-0.011025342,1.096800417,-0.012148078,0.005514683,-0.049682532,0.190080663,-0.004201448,0.104622819,-0.318344676,0.008091263,-0.031407696,0.051019078,-0.060944085,2.766412326,-0.061058113,0.002428197,-0.06897642,0.427237672,-0.012517525,0.730431342,-1.460862684,0.030601579,-0.055527702,0.172314591,-0.274493073,1.074778688,-0.178211036,0.035285666,-0.051178334,0.207956442,-0.03077008,0.679399654,-0.243135515,0.049871656,-0.022198742,0.182096684,-0.029202217,1.171868588,-0.185152523,0.06481811,-0.051500876,0.201503752,-0.013192488,0.775137186,-0.098753112,0.063595951,-0.032092197,0.187030042,-0.016931037,0.773432178,-0.071589841,0.041867933,-0.029389522,0.160553051,-0.04260025,0
