,da0_area_max,da0_area_min,da0_slope_max,da0_slope_min,da0_peak_max,da0_peak_min,da1_area_max,da1_area_min,da1_slope_max,da1_slope_min,da1_peak_max,da1_peak_min,da2_area_max,da2_area_min,da2_slope_max,da2_slope_min,da2_peak_max,da2_peak_min,da3_area_max,da3_area_min,da3_slope_max,da3_slope_min,da3_peak_max,da3_peak_min,da4_area_max,da4_area_min,da4_slope_max,da4_slope_min,da4_peak_max,da4_peak_min,da5_area_max,da5_area_min,da5_slope_max,da5_slope_min,da5_peak_max,da5_peak_min,da6_area_max,da6_area_min,da6_slope_max,da6_slope_min,da6_peak_max,da6_peak_min,da7_area_max,da7_area_min,da7_slope_max,da7_slope_min,da7_peak_max,da7_peak_min,da8_area_max,da8_area_min,da8_slope_max,da8_slope_min,da8_peak_max,da8_peak_min,da9_area_max,da9_area_min,da9_slope_max,da9_slope_min,da9_peak_max,da9_peak_min,da10_area_max,da10_area_min,da10_slope_max,da10_slope_min,da10_peak_max,da10_peak_min,da11_area_max,da11_area_min,da11_slope_max,da11_slope_min,da11_peak_max,da11_peak_min,target
0,0.48643069221587065,-0.031210979029091535,0.036222191245437685,-0.040507484542357225,0.0,-0.18438537687379766,0.6803260499692751,-1.1911705867771294,0.006266918591699366,-0.028822447083823866,0.34477606985884834,-0.012594390826155877,0.3510494640081361,-1.283063781862583,0.005131401245159817,-0.05073020899841757,0.30618491499530903,-0.026919348745605975,0.9085426494541129,-1.1318818558635022,0.0015074819084461288,-0.028414308324026638,0.36368557090044945,-0.035021969892243376,0.6257666023068946,-1.3843674307304599,0.007579412569989952,-0.04656083434391167,0.29682299911868326,-0.061636311043242575,0.4753509063363177,-1.2920847083528806,0.0036451957014896064,-0.04942767019911526,0.303288860451856,-0.022009271577579037,1.0322506508866525,-1.6603243390777314,0.016253893638800865,-0.02590511186884603,0.2974826740379537,-0.07634893995078307,0.41859407912130786,-0.23354890660417377,0.010147818194809421,-0.010663483356766146,0.11392409470414949,0.0,0.4997082663888296,-0.31636810075164334,0.01521825804686655,-0.010533387906757175,0.1415096216511474,-0.009109386147614806,0.7071398328359397,-1.4142796656718808,0.019759594713068873,-0.025274826974109765,0.021416829949447047,-0.29895781024060586,0.5667919813963374,-0.44560630605586415,0.012975302048893578,-0.04901631377642357,0.18973886368739395,-0.09030091822645914,0.6764509563401995,-0.07476553074229769,0.011343370121314478,-0.05044769063232518,0.11159835285339142,-0.13770651634656006,1.0
1,2.4721837869158225,-0.18820103491596096,0.028982914241322044,-0.02000652891892707,0.35554339245180866,-0.03352066072848525,3.9622098363276668,-0.06162563471771168,0.05061656145556198,-0.04347143435024764,0.5606854643504223,-0.07030583892858283,0.2891752717355307,-1.2331462950432939,0.0,-0.061575640125401565,0.2054280668231635,-0.21535764839226212,3.226348468358761,-0.3536850238687126,0.04013785536630329,-0.021085837863165924,0.44036605846583754,-0.0508706027579251,1.1156713491378003,-0.25382170884832556,0.019444510508098756,-0.06682172875875675,0.1490382718984361,-0.1941075079227254,0.869565853810777,-1.0713070138705238,0.0143406443804861,-0.05403185289874285,0.2377797850909712,-0.18793151746840625,1.3937965158170578,-0.6968982579085288,0.05093128033651945,-0.010915989080441335,0.061950828421187265,-0.3607888758417705,0.025385746007120513,-3.508522409184614,0.032501718806744656,-0.054582209492510914,0.32851722442037185,-0.3190607415418841,1.5567456457819397,-0.0063681240940197115,0.02949170197822959,-0.06605054993594395,0.21846245171667628,-0.050033003200289694,3.224392758209704,-0.07714838323946,0.01786973346408044,-0.031537619559592445,0.386213639811357,-0.09993483301091566,2.7631894055551967,-0.5999923462740585,0.05474983639674033,-0.039766936563009336,0.4412393761670391,-0.19287245736879155,0.8852320506235687,-0.7277610282365603,0.023292497647206423,-0.040482817479128075,0.1702724150890209,-0.07466182358579432,1.0
2,1.5326460078806328,-0.7663230039403163,0.11824471876621986,-0.12452978796095115,0.17098828319353498,-0.31932168867818955,0.13241113968389262,-0.36171959910546814,0.08672432217044285,-0.0807811258548645,0.025904229712380933,-0.22575993296297503,1.1445554094662915,-0.09970611063375223,0.06627348605474831,-0.07853305011249359,0.0463855942356447,-0.32406901328903726,0.08376970994691446,-0.5368025775301606,0.03240717004787114,-0.033420374550394816,0.009345901129925838,-0.1304352509648568,0.49286525925182595,-0.4225054361277546,0.01813326626795725,-0.07405216206256987,0.14264593658432767,-0.18711570076346018,0.6471714126807521,-0.16216161393884043,0.077087680861266,-0.07932551560612147,0.08318655993715718,-0.2657203405357783,0.16041331647414353,-0.7367045746396113,0.016006730689576698,-0.04291462278299907,0.1623010395659123,-0.07581315826275092,0.25187213766841293,-1.275384767753605,0.012788144842760807,-0.028495333167360526,0.0,-0.2274685845679928,0.5845990412758022,-0.18057989276675024,0.016329210916167014,-0.06711614839046065,0.0966751658635816,-0.08905126790661655,0.12210263954357929,-0.22111495179567126,0.03793683990697394,-0.06519190779346784,0.06674977149105987,-0.04964092872162862,0.17867431997629285,-0.16557029839695614,0.008064906543081729,-0.04611829830531866,0.0699509406768658,-0.09289837455819222,0.6162012265457762,-0.049232910002653174,0.06458182036867083,-0.07310853333832211,0.09702587989408995,-0.2548491407368513,1.0
3,0.47904365291020157,-0.5423003131689605,0.15497240904172477,-0.07667333773010598,0.10757108246267377,-0.23079167960375238,1.2540227887634094,-0.05305912195458462,0.06777930258752854,-0.08010507942259543,0.15593409465235708,-0.23429379354956087,1.4385205189845391,-0.2256659857565093,0.07189397083143007,-0.09533513814790329,0.12669974931849248,-0.2786004784075887,0.07957718779169243,-0.5505041102294087,0.004441978692945714,-0.018170743767531583,0.0683150948903557,-0.06660158864505006,1.0768945400425038,-0.04333624608929451,0.0014895839360952734,-0.026592567695457148,0.1684653435175204,-0.04403163976869351,1.3075298435267735,-0.1567915357150329,0.0692113070933415,-0.08720682916733777,0.14756540258809966,-0.2534534991115687,0.7157605688051902,-0.24937976577496496,0.07609369518602738,-0.06939982645929149,0.09830481452995399,-0.15841260402623114,1.2724709409699018,-0.33814661542178004,0.04629337426779734,-0.1829167190150114,0.21182145849812384,-0.19642595061825874,0.5190160218382461,-0.7760763446359162,0.10672198804301919,-0.15115212912952247,0.19622660917867824,-0.32699585032393036,1.0649425247673372,-0.3800726100374071,0.1075960774764683,-0.16103399506614574,0.21098682441909927,-0.28310691949379435,1.1171207978442623,-0.34884544568207243,0.07191498093501697,-0.11487173107004822,0.18524043196367196,-0.28153218597954943,0.17367483951341728,-0.4647779984008522,0.07083007997221691,-0.09079342506990197,0.018744835666176463,-0.248857621452202,1.0
4,0.0,-0.42364017409526045,0.01387942212932293,-0.0358065534718786,0.0,-0.1382507824493668,0.08013499577856259,-0.07973819676833022,0.02764799692679376,-0.023701343703866118,0.03844559111578383,-0.03749427252758564,0.0,-0.8254414513031775,0.013973443360483784,-0.028887982928219258,0.0,-0.1527264058725909,0.0,-0.26373113414434246,0.013012562130962135,-0.04255475396933839,0.022916680560847946,-0.13956214979336024,0.0,-0.6178610635608481,0.014550834933466261,-0.03335473532958522,0.0,-0.13764994570959083,0.0,-1.3050057018175707,0.01217190950433894,-0.019661452111450428,0.0,-0.19071534578786087,0.16374417038939953,-1.623200605554623,0.006572992938594979,-0.039598011495437124,0.06381548070428478,-0.2666286540551512,4.021107606131682,-0.4073227127157524,0.008909538514786153,-0.02890656088124871,0.4683139796922573,-0.1966924158983464,0.8996519310571484,0.0,0.016065919128591483,-0.044393374452054796,0.1472224370953849,-0.06061053094260649,2.034900725407818,-0.025658098902171994,0.009535262745113682,-0.015128169677600778,0.2498407441351863,-0.050240710590356064,0.9259910639244134,-0.14037735722835287,0.01830824680297971,-0.005643864317128933,0.19844533631219652,0.0,1.8174196201459907,0.0,0.0,-0.05299175660560157,0.3986137161861672,0.0,1.0
5,1.1414567740819257,-0.27391456991313357,0.056145473660755174,-0.07968243822614599,0.07297914800258648,-0.284123078372443,0.3341247548888857,-2.557368050054574,0.05325013532115486,-0.05771623378235574,0.4632579285849099,0.0,0.3704261623065568,-1.7010133902604538,0.047583576820708434,-0.05243532824239708,0.284177028392279,-0.04518115693664887,1.0053013696739757,-0.5992895388831845,0.02042461736920484,-0.03530337053473126,0.0935916771219018,-0.1413900214880981,0.4288158080325182,-0.1441967594865881,0.0542975655261137,-0.04620807488995532,0.1706850547941985,-0.0007679203860129213,0.40226899405573047,-2.1251274554376627,0.04995924453570358,-0.08003530485366861,0.3759301137199007,-0.016744040123499948,1.5384672863747315,-1.9374832912683293,0.026053437746776542,-0.025782894497407727,0.33338901058539794,-0.1422874651027224,0.6536934928395977,-1.3073869856791955,0.002642579789164212,-0.02138171275276024,0.07019086653087792,-0.1956271984470498,0.48030987779414647,-0.4219128494630558,0.10586677591860394,-0.14485765237532888,0.16090601536954618,-0.3312807119522912,1.3770489859984434,-0.20883312091060158,0.07613199514501093,-0.12886954031211864,0.12513063233104538,-0.4170290475667546,0.9683417217994614,-0.2468735261807189,0.05684307889029222,-0.1026748155155918,0.0714449884754571,-0.3374345795882726,0.9771186315126092,-0.27132189785100724,0.049724094171790134,-0.10104028972649814,0.11032190813292847,-0.33047689348821296,1.0
6,5.093173516169381,-0.7374391831355926,0.015846806407600375,-0.031994229001128194,0.5314856129068918,-0.23067675601975127,1.3837634288930556,-0.7492510681330982,0.05869732197149857,-0.05509140053296094,0.2895900663835455,-0.12436380456579055,3.2445322001692958,-1.4443123444973012,0.05911113743977059,-0.10618676081556983,0.3054707401812342,-0.4057257486846997,4.8688402029195075,-1.217036801495568,0.026129419645204766,-0.035045735994660876,0.5236526170468692,-0.26950218676981375,0.3329410819353693,-1.1533557536570287,0.02917418069765898,-0.06826966905542425,0.26284133550035577,-0.01775571726245323,0.10061262505345603,-1.6377069963242952,0.006632478822911736,-0.05632146561873708,0.1395562389891451,-0.1823370842934966,2.45465862731766,-0.39823072811570714,0.0544679052422416,-0.03512310583779099,0.19874830008435712,-0.29276585586962656,1.2015688377128386,-3.223022733379992,0.03024231260912774,-0.05891855537921162,0.3167213425330483,-0.4802243427972386,1.849875669234144,-1.0375818629512235,0.003008141767936845,-0.05336256381388116,0.38758883838801217,-0.08145475772378974,0.7289734599875765,-0.8989286244007586,0.009717996076856916,-0.04943835533470298,0.3225510968565755,-0.036895407918710266,0.0669909166543663,-0.5850384816120819,0.0002905348654096418,-0.019151174401576265,0.08192687359015927,-0.07858548472071891,0.4253468358614465,-1.091007975975653,0.030113397036011014,-0.06817082581340073,0.1174772971322548,-0.19657212646146255,1.0
7,0.7801261097679236,-0.5181361712058562,0.11718373739174825,-0.04845941322282321,0.21384240471517513,-0.09408187919457406,1.806513110613177,-1.1955682371441014,0.09058056715153817,-0.06615528036177643,0.22887161746152118,-0.3527258068613177,0.43286278102348497,-1.5536147099818272,0.03584911485086323,-0.03228285668788386,0.10801927186277155,-0.25867133038125745,1.9149876811074027,-0.12360389988044229,0.026065195130481722,-0.043646985233928154,0.07038044941355565,-0.268648729605223,1.503693166328403,-0.6914306402835232,0.03508577427643189,-0.055123117287121604,0.2791493912362837,-0.10715906865827074,0.1902868546804093,-1.6850542616361703,0.03799302331422949,-0.05652107516679944,0.30792116516836326,-0.013071388050167276,0.9976649942123349,-2.934148541421506,0.053160911750137485,-0.06563519559530284,0.3369140886922362,-0.3481879468617067,3.173805080874536,-0.4519332690019632,0.09585055170570439,-0.1119243859600324,0.379045145157657,-0.1874043786435663,0.8433426707151837,-0.9042148885214969,0.1457175443772304,-0.019074959260463292,0.28402025448980156,-0.14814569610400113,2.3422492895114218,-0.25393378637571634,0.13446007504752744,-0.10891763661645959,0.4157126132135581,-0.18785827445432657,1.253190028875113,-1.1590491760819914,0.10556729440649482,-0.10637888865532946,0.3441631643266374,-0.159378738510619,2.2168542074434345,-1.4346769657943532,0.04263986000482062,-0.036320631663949,0.26824280189778504,-0.27260913250519014,1.0
8,1.2179984501726182,0.0,0.05419834901284132,-0.06396834960157909,0.0029837866338370267,-0.3144096208223187,0.0,-2.1826995235191022,0.019859896428570722,-0.028707324533170514,0.0,-0.31057458618044953,0.8793041058506377,-0.1326063136667175,0.03034610791146375,-0.032977221411076035,0.0,-0.30877871860142336,0.38898639622747244,0.0,0.0,-0.04706145603051515,0.15940135219983365,-0.053111739575562034,0.2616357953083226,0.0,0.005942642397223863,-0.03683482119475601,0.14134908808937185,-0.052948642160689396,0.0,-2.1813294972801334,0.023976528621781568,-0.029269652020561157,0.0,-0.31220036374118637,6.032265219693517,-0.548364947104798,0.03201737014112438,-0.054717665945875904,0.3599860555332616,-0.551134350367462,2.3845255506644873,-0.3148315724345365,0.05711219259525213,-0.08419042121675474,0.24124178285885778,-0.31172105527029026,2.2649646188164883,-0.36932236379095196,0.040248523564535565,-0.07249782458051104,0.2142409168680443,-0.2929871722704471,1.3303381914870798,-0.7099267368938444,0.04335858378741547,-0.07609961533187494,0.10627095589038155,-0.34011697103040145,1.3986067072362987,-1.5193866746156655,0.03613031688984,-0.06774041757199857,0.10615780635476557,-0.39395734280520284,1.5011981326860324,-0.7591124660915936,0.042988222736584314,-0.057817012005418916,0.04697300121660569,-0.37889310634456225,1.0
9,0.7580386840426747,-1.5822014581673094,0.03925750771139422,-0.04740019393279382,0.30867476876950706,-0.08009350533890017,1.4132390300979905,-0.7901531670318644,0.056038810800610586,-0.050641447998236,0.28959297091112846,-0.06969228839960198,1.6972833991501253,-0.38825088392174795,0.07209700635832189,-0.08775247922704571,0.2730732191448651,-0.0885344236198069,4.9673936494121715,-0.23993026346848545,0.05346074828872621,-0.06874411256454638,0.16660545410865968,-0.6043693617880326,0.8791281098585574,-0.7793680003377349,0.08550091529792214,-0.1365462251605171,0.28792427707114304,-0.1637629950155136,1.3458070556549615,-0.8016042638708736,0.06002537262069976,-0.050383666923089335,0.2842133452543858,-0.08354879220855627,0.8359587714266636,-0.9322588552208491,0.07825866558756878,-0.03475125554119385,0.31292657543384694,-0.005540574815858679,0.5574433000407835,-0.7207267351256559,0.09806602609784937,-0.05220309121802874,0.2011452510341279,-0.0980129822924738,2.182210178808027,0.0,0.00014223994765832915,-0.007945405420950902,0.2977319938814137,0.0,0.9792269464328084,-1.9129507124010872,0.05110110774910312,-0.08163551116569664,0.2199305232918985,-0.3087885285346291,1.0033703929163442,-0.501685196458172,0.016964905382776674,-0.015540065624049415,0.047409933652630465,-0.15775548812653228,1.9080442762189853,-0.6326788260027953,0.052579742451080935,-0.04034267350111115,0.2953321811331922,-0.18127707775137597,1.0
10,0.9743105358157339,-0.88719840910732,0.07941659510816648,-0.0790136324815002,0.3597940494981249,-0.02880700430752181,0.2167071980958261,-0.46185330384933143,0.029825884984138684,-0.05666405003529024,0.061311846953693905,-0.1363969503283743,0.9711174778385513,-0.08121606058749475,0.03892229110956136,-0.06270315646536442,0.040667950437566824,-0.2083251242022504,0.27484125728712777,-1.8166762461695691,0.05067102319696487,-0.06904980753748596,0.1368653309074659,-0.2623546710942394,0.48662176744007846,-1.2066537586268038,0.015259412266770328,-0.019132472923527877,0.09296475816595162,-0.18538969923197243,0.34305829330826604,-0.10057094272127765,0.02156767238364457,-0.05238622250912921,0.022618819006641422,-0.1357197821524647,2.3445860947361536,-0.3812409640911931,0.030860518320777408,-0.03489102793231569,0.3028709761183271,-0.07693487165424828,0.5950086246327377,-0.6886949714085457,0.014563992935387016,-0.004284839342999391,0.10851328573693547,-0.09144675396222823,0.22323285262531,-0.6678825206105147,0.14616233309147572,-0.13580092495848775,0.2376175623712638,-0.21663887308906207,0.2986423228380107,-0.16175555387049043,0.04945412645252523,-0.08074058296973535,0.08455102351213073,-0.1353212723412449,0.5387696601862337,-1.4185181334272416,0.030703242552859333,-0.05763096642087709,0.0758568457557568,-0.30285656219660545,0.5944604150160114,-2.7652242121436585,0.0,-0.07237389285170415,0.18225399878288,-0.4255876566000819,1.0
11,0.1737395367025823,-0.14404956417251868,0.02847724623317191,0.0,0.0,-0.1673130412946658,0.3092285553180193,-0.008862794617226999,0.10159098047090542,-0.022632310607666573,0.18006303817552666,-0.029471137780449963,0.09191957995851413,-0.3197577866025848,0.06094814069371618,-0.032155472675441915,0.04453285013112085,-0.15956123042159243,0.062264814433863336,-4.7669251218070405,0.09767876658831409,-0.08896017713886162,0.46342728755455104,-0.30689081684147984,1.551988781037621,-0.5185286311315583,0.11954792071237891,-0.025360788647161292,0.3687322598592512,-0.17180936465876057,0.5074533026629875,-0.16579036260857224,0.07144917113884142,-0.02169678465540903,0.13162765567319185,-0.07453447516503109,0.9662435403597516,-0.4664248758092189,0.01735358404591636,-0.04901257410993359,0.0,-0.3557405548265731,0.5313500561480342,-0.6702447018505308,0.07798057850289497,-0.11437955031251112,0.06167070315253076,-0.34495371150756776,0.6716593576916533,-0.24159904699232437,0.08457770264690581,-0.08412473545431463,0.09529831254501131,-0.22262327054317865,0.712744159862835,-0.410710201309406,0.08952165531098982,-0.09250983604273297,0.1809356402266707,-0.16154532213130002,0.48290482183953143,-0.6360523037011965,0.10225897018663216,-0.12926426530827956,0.3293982368563582,-0.04197630551565357,0.9128418149560215,-1.796791600507881,0.014678083786223206,-0.029486048383644325,0.12957662606556358,-0.27802357623078733,1.0
12,0.24605256639708273,-0.2583959446343569,0.026203824019917166,-0.03517341735396462,0.0,-0.2702658181459957,0.06543489206389252,-0.265112478498999,0.06323698148584328,-0.025278640702932675,0.06695323740574799,-0.18063552447482312,0.21232358144043773,-0.22879000930577342,0.042658078169047806,-0.08384199051741897,0.014712095127067948,-0.1917826517756659,0.9046984570901029,-0.29886184538096616,0.04676881431154242,-0.025672884240401206,0.0,-0.33604913440178885,0.21705165782860714,-0.26862460583270575,0.02923845585995538,-0.14650205761323298,0.009788876281005665,-0.23030138511737053,0.09019067545284687,-0.24612061548265973,0.050923675042654964,-0.03424445637417871,0.028582643017759424,-0.17714254715708247,0.6814732320403818,-0.7862611346215149,0.05811924367351898,-0.02165867142261374,0.03390888305853851,-0.3593597095226505,0.3213903777652607,-0.6461011706574482,0.03197125176463156,-0.1080425441799201,0.0,-0.35359024509935455,0.2061305029277556,-0.7134452871062249,0.021306110917993726,-0.1480712343361099,0.0,-0.3090523306301991,0.5352618900342292,-0.12751479426320955,0.010489463636343677,-0.011450293450787408,0.06440528992805006,-0.04503708738278123,0.2360065677128917,-0.14187473448783353,0.15140231644647942,-0.14475849338798408,0.17849648523021544,-0.21123477505480295,0.13899797200671055,-0.30773117081664464,0.07343532828222515,-0.07507822264792358,0.034917827180996064,-0.1430924021374441,1.0
13,0.30964583776757415,-0.9022044921933909,0.09597103513256666,-0.03137974098284163,0.3142370656888203,0.0,0.530373200423967,-0.6494648466606273,0.08873160903451105,-0.11743169780138013,0.16846794832308826,-0.44669501924185434,1.8957403003129105,-1.4401755827886569,0.07295676571284443,-0.1038976152893446,0.24077802082102184,-0.42304805013024804,0.09449193033405973,-0.4773810533530554,0.017780513783768992,-0.012952338852511347,0.07899905288222386,-0.046017338964183474,1.4565764606203704,-0.3951362549286141,0.10222489643682453,-0.08706289320960789,0.44177837604315057,-0.17969487988410898,2.531035984738752,-0.9935452207768064,0.07464978729830304,-0.11375928262235149,0.32258652983292335,-0.4516956788691093,1.1138644103377573,-1.4022296913720174,0.02705815887812643,-0.025282198891785512,0.31991602764576055,-0.04532252926866187,0.9463689018630563,-0.24295813586080328,0.04369966737794123,-0.005980514263298264,0.0,-0.4352341893604026,1.2120003893179794,-0.816251639034925,0.061355020621147505,-0.021873085104291423,0.1537771630338181,-0.14258377372303915,0.4948152308628554,-0.14878990410263682,0.13416571006902472,-0.02342011152232079,0.33002529837056416,-0.34777017680463534,0.3293378558555724,-1.6285599730058378,0.02004631591486905,-0.05300378567523045,0.04366328765023175,-0.24603623884351689,0.6878574261890004,-0.6473655513741501,0.07411393507940722,-0.08412905909956975,0.2523099851500453,-0.07625692709673781,1.0
14,0.581070585419663,-0.4308762740414664,0.03078975524064642,-0.03647528062111194,0.0722774237834749,-0.09829561557506583,0.29790850643614153,-0.2809558394648579,0.058214422273130284,-0.08130615658295214,0.0,-0.2869924612869895,1.3027106684370717,-1.1002847049207425,0.03557787120128397,-0.03957709386767569,0.20501158766962685,-0.17152681187505986,0.7330768973928554,-0.9068103947021187,0.03238805758368429,-0.02990393218897519,0.1560940279614358,-0.14167005396773164,0.35996830056916385,-0.9136762632601476,0.04117657078763637,-0.029441131137834753,0.14056865689431852,-0.0768608032209831,1.1307284215423155,-0.31613058645962977,0.04763683165011562,-0.05325802630683653,0.01777266153003121,-0.269703012519099,0.47327493985866376,-0.6550897552440951,0.02367543982706899,-0.019694397583267798,0.19512535991131907,-0.04580244645807924,0.0,-2.500890501199194,0.051447368301970664,-0.025402719941445218,0.17036903097264722,-0.18866964407844777,2.3201109826616664,-0.8681596157278226,0.06842180875039561,-0.07379534080355149,0.16317790186038494,-0.40066216794257525,0.8164806561416336,-0.24479329454898913,0.08849836096513941,-0.12076075728471591,0.1223861284611435,-0.28228996776268794,0.21015126224358002,-0.8857714112373845,0.11036464123098516,-0.08935780687675784,0.06258144783650871,-0.2575095158711482,0.1501513728089634,-0.6556212575049951,0.04859495095960381,-0.047806808635414685,0.0,-0.1991493987518569,1.0
15,0.09613307433802865,-1.605313210948105,0.06561469668859965,-0.1360113457492659,0.3396075114225492,-0.219781998547596,0.48207363443309875,-0.18230782850999308,0.10259800903097605,-0.038802232724163166,0.22432608481489896,-0.08298980432340264,0.39179260125042553,-0.25416938339950995,0.029501150935300396,-0.008836851328535511,0.06650013317641404,-0.06143047612916899,0.7237980559318371,-0.3519423763961579,0.016326079299427976,-0.029603016330231213,0.23610131564688575,0.0,0.11823802551906626,-0.23694302589658156,0.02696990082658335,-0.013555518318742632,0.05018800711825977,-0.054398239265756265,0.8219128675872407,-0.5215875613992363,0.023245990418237772,-0.008358133258780112,0.09012187966334029,-0.10167342799078047,2.7629456877167713,-0.1531296335582904,0.07547868110848033,-0.06226713536148226,0.3718920086471781,-0.042188080541846196,0.6991785473369676,-0.5917190429827797,0.040067833756761234,-0.030035307619291074,0.12610161731716157,-0.09033198920185376,1.6682817870362052,-0.46749214844857756,0.025221798257311967,-0.04892359866160079,0.30288935498197306,-0.11502340568625702,1.2355266483924765,-1.2227444628914146,0.049744033195033094,-0.04196307080751022,0.1616653266375852,-0.2915074312167608,1.3429651502977706,-0.9283727911360565,0.06089553537220738,-0.10658967398669073,0.2900843320907972,-0.17444628152340053,0.9040208230033662,-2.0161012841522226,0.04064763938995103,-0.02372982843816765,0.23870833808383168,-0.23772491213572206,1.0
16,1.8335344895380477,0.0,0.0,-0.010104702139112992,0.2637458756264145,0.0,1.2122121738373848,-0.7321100643268974,0.00033846260861836175,-0.01673488567787107,0.26889046287538293,-0.04189471179356452,0.6137797433171477,-4.416688446312926,0.039799605547927,-0.007936626192293406,0.27506165613114403,-0.4847761233893413,1.3080935156731268,-0.726570806046567,0.00029079329684700284,-0.017499487130088087,0.28894747556583406,-0.036773477548588174,0.5674718081647139,-2.912229367736188,0.019731461806037964,-0.008825565922681244,0.2807858275783074,-0.23658351530176924,2.120536467298397,-1.0602682336491982,0.020192902191577156,-0.016166075510795463,0.25876320118592033,-0.24992892978936565,0.7009209923663542,-0.22969802505058518,0.003218502105673704,-0.03392800853836381,0.149695145964923,-0.140604171940648,0.9544705437567854,-1.8325736602759939,0.00873589078049175,-0.04287770350566411,0.26486939227264683,-0.2595162921431126,0.43808149163113486,-0.12018872167456607,0.02022373063205829,-0.04384061342429321,0.0,-0.28150358171314704,0.17602020419590847,-0.24760701254855366,0.010335274713384801,-0.043811336896773745,0.0,-0.3183802863303431,0.06014526217043081,-0.15164586331397734,0.0,-0.03357031977970726,0.06699479183023505,-0.12635088782484527,0.0430606078268162,-0.1037055912749466,0.05456000426201113,-0.036147793000595396,0.07865374703092964,-0.028289226449198512,1.0
17,0.4889077616092047,-0.054273558272474376,0.13250697143475132,-0.07525456317345267,0.3267846437128666,-0.037799666155904244,4.9590231620252245,-0.1798121431957661,0.08554981562792657,-0.11416698161974531,0.613797133598967,-0.2448910039492037,6.436806448707893,-0.1647455530562647,0.04051965748260211,-0.0949187476244713,0.5461725650050548,-0.46596843749772454,1.1058000585339058,-0.08999861699227063,0.03834793350036236,-0.01464342964627835,0.03152331842186057,-0.24890222014133861,0.6859521899971486,-0.1297958923587661,0.013467313251212198,-0.02448592079421974,0.0,-0.15444068666904914,0.14665104810474427,-0.14793373594841874,0.06384711037002036,-0.08323594007451937,0.0,-0.32544897097308734,0.31088921521488,-0.48558018103035694,0.036945951696986334,-0.015477043927143996,0.02398658037994983,-0.23375025547085687,0.7400969329040145,-0.1639502756663178,0.025863927823710164,-0.08067916728176078,0.06662566479769749,-0.2360638135263593,0.24216054848168062,-1.3487855004086184,0.006390927913569766,-0.015959366660725893,0.06762694710745593,-0.2018284492851491,0.4913208111791771,-0.07594984400318672,0.14318127085184781,-0.08772732644177056,0.2545726849655596,-0.11884069146125692,0.2927397759503961,-0.12070230925284325,0.08425665394348035,-0.0855763675487798,0.11283324016862323,-0.13104223652413802,0.25908697666074176,-0.062290378646521316,0.059380207513770475,-0.07881095838501741,0.059382788085905525,-0.1463240725070384,1.0
18,1.4067856964819125,-0.23298147035255473,0.06557582503545312,-0.06695336518064199,0.23326393798655587,-0.06957725845314233,1.0432569448176616,-0.06426098926842172,0.06021381531985592,-0.06489905786856037,0.11748526078681909,-0.16847568933211352,0.2651587433826412,-0.4178054793204904,0.028620611614343427,-0.08062661510535762,0.014322364839637391,-0.2554054136284232,0.3674117344292281,-0.348578156940105,0.0,-0.01049789171019222,0.10463756594622164,-0.03504784315848941,0.7160649685953068,-0.6999987216650958,0.012217652237527243,-0.03177131449429332,0.10205166307920843,-0.14621097494219648,0.8454055787354493,-0.11343389730036835,0.04309147887440706,-0.07045524964093723,0.09372486818882608,-0.1865409232496869,0.4712794543662804,-0.20379161657380904,0.0,-0.02154215323310421,0.13233235350377437,-0.034309992673151934,0.8442564682566082,-0.16244948118911676,0.018288917340040123,-0.006851473596537927,0.13789361538210426,-0.06495305424807624,1.316770735526199,-0.34336014507389523,0.02672891990764875,-0.013332889124642533,0.2046106502621552,-0.0831152403912524,1.3704316644596426,-0.1582272842139869,0.124831915372074,-0.09291464118361525,0.3283842654399797,-0.07045140857073007,0.8400099189300305,-0.11979809579195955,0.06428670845523643,-0.07861299591448317,0.19283150300963564,-0.08685834512364798,0.8128008825792448,-0.3061621436850436,0.06313669533996558,-0.05101562092449796,0.21423592032900413,-0.030743634847966606,1.0
19,0.685954305300801,-0.47076364602817067,0.027279053481932963,-0.0010274524061499313,0.3254265512273427,0.0,1.016348924259879,-0.3633521751165006,0.03554461901971795,-0.0084929706108825,0.2766161946400602,-0.019444052269877665,0.7983662572505283,-0.7292814119924557,0.09433947772859835,-0.041615294086769006,0.191569806727243,-0.20534692725423875,0.8914499581976573,-0.09300640166432295,0.03170817560271855,-0.0042095241478028456,0.30002102300071315,0.0,0.4892920032739723,-0.9785840065479446,0.0945646234701838,-0.0649648417388603,0.15828499024773224,-0.21018032548974452,0.8313627875174998,-0.36120602090483256,0.03967383791561885,-0.014817041374734274,0.20659309385468833,-0.05907388542288805,0.6627900007910453,-0.7718341871680608,0.012445283610355656,-0.04669102264726836,0.02979973074414144,-0.2723503102003644,0.5617300278200379,-0.7972858612313432,0.014226516819123403,-0.05854971965333648,0.0030751517810459483,-0.36151236623709143,0.3235059120732857,-0.37817364267557574,0.012072176722119243,-0.06268293783191428,0.0,-0.3943639657818179,0.05247394855325524,-0.5654353030117676,0.01121931891153749,-0.03260863581565576,0.0004908765549318517,-0.11333546967612396,0.18868913918823974,-0.7854893849186654,0.007492313603694012,-0.026381581545510957,0.0057749461213844056,-0.1427474379499647,0.27831671239734856,-0.4201410724565018,0.11405775843003846,-0.10173349700428969,0.14446220097423773,-0.23613837204369975,1.0
20,1.7806092887129772,-0.24692807749917592,0.04434374978610245,-0.04261297713750116,0.267163212312517,-0.08093379799004435,0.08921048322240588,-0.9448694021923008,0.0,-0.04235308788687092,0.0,-0.3767108512263312,1.9271298710514309,-0.8579619941482948,0.07669619527686469,-0.059907058464642726,0.11397678271354561,-0.39160708083605394,0.05948957068776184,-0.22146469521160006,0.0,-0.027795052123140374,0.10054088031385067,-0.08306493498104084,1.1205228520557766,-0.66634536369876,0.057292328963379345,-0.12210357412452175,0.2734932541436851,-0.06887888008935533,1.4866156335308358,-2.3828592105983564,0.030946997257978615,-0.06870992809537774,0.0846062301366941,-0.4979089826360687,1.5992681960924415,-0.31367778579280803,0.01772225668601113,-0.04615944329012128,0.35235497470896643,0.0,2.121034060696237,-0.5662755112658187,0.03298092081325177,-0.051895516743242776,0.1609548625302949,-0.3081035826997046,0.8144748077845612,-0.1688875302495688,0.021898335660225615,-0.014905218034203749,0.14211596790277786,-0.04035437349918897,0.057188553551529686,-0.7665362703948462,0.020759559117812354,-0.019643631459177996,0.08171261436623334,-0.042464263015472126,0.7077398623262315,-0.11152643368204174,0.036990651157604776,-0.0738205206339945,0.2443377531422642,-0.028250302896567214,0.8060808182292393,-1.4598134232792979,0.033021379047328825,-0.05327670500380055,0.24580902435449115,-0.19253095677787038,1.0
21,0.7134576897547245,-0.12078734912130992,0.06567001078811974,-0.07093994385326924,0.17270684958312843,-0.13217233922732244,0.3316772118277277,-0.389658037785108,0.07194552584032657,-0.09310691187334352,0.03571458411121947,-0.2522490555756453,0.9699745890084887,-0.8845996884876813,0.1164776966109412,-0.10929897296580207,0.24856909752870404,-0.27108162767151467,0.1956103091506871,-0.21800170984993317,0.026485017654055643,-0.061253252753737164,0.0,-0.42459362629418484,0.8590705220273696,-0.4063167299520418,0.04456581575576074,-0.0039894691809398836,0.13149054734311513,-0.22122201664837177,0.5959352771786827,-0.3392120445623109,0.07496250250526643,-0.09849637843845768,0.037242255856925366,-0.2813528923819424,0.1029025583847768,-0.39001035793574057,0.050451977700956,-0.0908773926147961,0.15407811636146707,-0.0800478705785167,0.5523731670026384,-0.3825880562470298,0.01706087749563477,-0.024765540455280358,0.10524488849247204,-0.09206581862583954,0.9351349196854661,-0.15471085850129915,0.04853377186506784,-0.021474126650483483,0.1963025947008019,-0.06500777918127887,1.39371610752795,-0.1816621225362784,0.06934929967421793,-0.07323872815228277,0.2102105599731947,-0.1771129718299131,0.5927157179579349,-0.7378198791377374,0.06103671558673818,-0.07271020054258388,0.03309076554885215,-0.30262125702305886,1.6846315935214655,-0.04499089214850175,0.009915829423430944,-0.007053483901413138,0.2206930766462557,-0.017231612415406994,1.0
22,2.384580572642359,-0.40783128528147716,0.07247289516871347,-0.08820777994307646,0.23810143671316827,-0.3346311562435322,0.4845793617074831,-0.09429332952366953,0.062291275531501766,-0.015109319658617129,0.049062423973676605,-0.1824573062850824,0.8955880517843823,-0.48276041044739376,0.04413388780105665,-0.0433009867397261,0.14219834636098394,-0.11443022890400345,0.4759605677841695,-0.2085863440937285,0.07069669744893611,-0.048555767558916774,0.14381920628715017,-0.18977765538653824,2.32304575190249,-0.6442074775342148,0.05583809528425611,-0.08287920864309686,0.23523382887273375,-0.3533894045718773,0.6129596050239033,-0.1575211567501883,0.07288414010418523,-0.02298315472505688,0.03761421295544465,-0.2021291925975873,1.430582032269173,-0.06053615593025166,0.05697748395292984,-0.0773447961144843,0.2209914933593552,-0.09794937107580104,0.4262149951228935,-0.2006972893738815,0.045787537313484505,-0.07702429660299148,0.14168694754871614,-0.09768756231277786,0.5512824713934071,-0.6898839780806295,0.05449192533197933,-0.07720746938710465,0.16314663182679912,-0.1410261863030472,2.022406219622769,-0.39376934909202843,0.07739613326031519,-0.04701611583657042,0.27580183583113654,-0.3431542372585503,1.80031097914488,-0.23220967063861753,0.0891958288867652,-0.026454203120716974,0.22834031586758766,-0.2483661930358218,1.5652931271229285,-0.4798164104932572,0.0716966769837996,-0.09835882855629952,0.230467373072397,-0.22340968857821342,1.0
23,0.5664774044363001,-0.04426894624146016,0.07212864518303455,-0.03691501864162594,0.11975366661666298,-0.13998611115591936,0.550712802380861,-0.07561674788781825,0.05894947808684467,-0.06541422314313136,0.0,-0.27614974414200744,0.34367337605957227,-0.21994294768120426,0.033571004138748195,-0.10685135170468996,0.0,-0.48845229379181043,0.14454964965111042,-0.49261197064858,0.022990436155416627,-0.012844711272054443,0.06045261173544669,-0.11190695025141634,1.1543892283699089,-0.4456615445066335,0.08979309394701976,-0.0057774919823342374,0.3917833539120993,-0.04936808087665123,0.468132228466444,-0.09842543464319298,0.05100591202432393,-0.08149140580516191,0.0,-0.34562198154793083,1.6695065437577876,-1.7192912186305105,0.027638200877629804,-0.057038443241646475,0.41412090898599063,-0.13393117305725455,2.4489886382821426,-0.6668712137395376,0.010083546445921687,-0.03404241708360378,0.35233599588409553,-0.08351659081848295,1.6840891633633936,-2.4542589352206896,0.013240358850378303,-0.02283825763478431,0.21458953025135863,-0.3569183094374727,2.826785507217317,-0.05630173282886486,0.10976360381488792,-0.06480856506210722,0.27995160221937854,-0.1820433695748513,2.98232385424462,-1.0869174812258762,0.03540379729723489,-0.022172712990946197,0.1230885297111437,-0.49581798007548367,1.4189391322655367,-0.3507069087275535,0.030917866202423705,-0.021226596204739878,0.17510855276421594,-0.13284281025447897,1.0
24,0.7078362993448282,-0.6824440159483234,0.048856581919421216,-0.05833537613944287,0.16245236156125942,-0.10979014471932297,0.29751425987423263,-0.26254178120283345,0.07069184765052589,-0.07575828250978303,0.0,-0.32605055449993536,0.2106377103426882,-0.5968377313901172,0.0030827421130715793,-0.0411527743241617,0.21229595837115273,-0.06313847422136598,0.10503446043029052,-0.043586156624682404,0.011023378595169553,-0.02829623308942597,0.026680421382556663,-0.06551194566698171,0.5736085183662665,-1.1472170367325334,0.0,-0.04874718304130532,0.3925644689156272,-0.08061410618748635,0.23131050405695516,-0.3458916305726891,0.005113261636412014,-0.03616840299654778,0.14404337141065748,-0.058867530477945795,0.08865426298429868,-0.24667160991928028,0.05348134050564779,-0.06779758918204537,0.02240676549135623,-0.16409350111743004,0.20359455155573603,-0.33083085441662186,0.02380870145631303,-0.12923583291135077,0.0,-0.2503831967100989,0.7552379292993567,-0.25275431330313686,0.13620948966855043,-0.14135352646406482,0.23403905806571268,-0.24502264083130024,0.24756622949945428,-0.07410540217740214,0.08252348530730394,-0.11683963181955317,0.0454500114391746,-0.25593954505559524,0.2329308669117054,-0.2994288241850128,0.06527021865661392,-0.08549485359406951,0.015673402938640946,-0.22239536395009946,0.18542578386671194,-0.5084920623913274,0.06130545140627805,-0.06041410189306824,0.0,-0.2003533508813189,1.0
25,0.8226024374853759,-1.1993429776276066,0.05107875545041568,-0.11293849242449105,0.21035658262334272,-0.32124402453272916,1.5883080061009318,-1.728340601716703,0.016692812924127498,-0.08075089774053523,0.4732040667407516,-0.2553600004920961,1.7316126800527312,-1.3329111831933473,0.028863797525773005,-0.0936893114105738,0.2717656381498289,-0.2520067902853441,0.8037139986196882,-1.7501890526916062,0.04661323177295151,-0.10230195058506647,0.4315174160674538,-0.2834945220641666,0.6896843457650983,-1.7320388496760764,0.059189361826707476,-0.11182704315809433,0.25755867684706096,-0.28061572621804487,2.2008637558345057,-0.9253729912546872,0.025975955895595093,-0.053050792358578736,0.27102554816176155,-0.293065328790482,1.642346199961188,-0.3621376739933705,0.061814165072500094,-0.016463867143146294,0.3022298056725787,-0.0982276508464347,2.051669423779125,-0.8312132277322639,0.0051262313595601405,-0.02235519148529097,0.2826420932143115,-0.1541177257993993,1.518921163273395,-0.33823198769708096,0.027693348830820974,-0.062003809879836946,0.11821069769028103,-0.23841610817477454,0.92713301799159,-0.3099768717880787,0.035832499099273774,-0.0889966264106965,0.17057754887664356,-0.13805635564256014,1.1836295854531398,-0.7359732890811898,0.031247821851926094,-0.1676970240476142,0.23094361378290468,-0.3342737609457588,2.1776157033010675,-0.08602280134736878,0.013029492116954144,-0.030617040707544563,0.2642424349886807,-0.08506237982423376,1.0
26,0.7563487731332021,-0.1266365345814563,0.02956263579990226,-0.039460207072165354,0.16332042115501394,-0.034746039097301284,1.2629510538031765,-0.02389925543001295,0.001548839456440021,-0.04046692692789544,0.25754531610475745,-0.11901302800490157,0.8410577356102017,-0.02493071190023166,0.006027462825290264,-0.04431128307478094,0.2538698423835333,-0.02433191308591487,1.675106839842298,-0.431798568909096,0.004492331648799364,-0.05492171597947393,0.31406155824722626,-0.07328666827223351,1.223612290269049,-0.9506918820013897,0.06010112356873454,-0.14090762570961812,0.3226830469350863,-0.2644548091559027,1.1712857825623726,-0.4417801418560152,0.0027079980554167993,-0.04195719225509814,0.26850691934122883,-0.14501852612838076,0.4779601668202177,-0.8909274989646032,0.01873798111626046,-0.028191878990564356,0.13599677732746068,-0.07774228620009566,0.5781198168624113,-0.5372929791345766,0.02725801761321206,-0.024967664525660127,0.1265305746805176,-0.07216793781286951,0.5081357950100235,-0.45804194600115344,0.020716817594651132,-0.018203367597810383,0.12628328408318257,-0.0646393175183898,0.6943447186222486,-0.5612041299870153,0.018089309590270664,-0.019694934642603246,0.15546345062209083,-0.05390456953252393,0.18863558445358564,-0.15840810972302066,0.10112960350503539,-0.1432272820436531,0.12126738468498238,-0.22580461471200994,0.12047281124898823,-0.1447929601657767,0.0636764223379877,-0.09837550970454717,0.015305481398330267,-0.24197072056102806,1.0
27,0.1669240227203307,-0.44574564315647824,0.01220233655421779,-0.008336359144261285,0.04674481219895607,-0.06423071836319982,0.3872730720567289,-0.33571526765038284,0.04820420200937814,-0.032931100800700996,0.051058867902599614,-0.16317246573679822,0.645890383680344,-0.356095849933573,0.010165308292510389,-0.04901211767895358,0.05115700341280727,-0.17453379511998002,1.9340839275629529,-0.4102125450282075,0.07553532244879246,-0.031252392514658445,0.0,-0.40467185627562013,0.22133367258668302,-0.16861902041132035,0.008007997986954424,-0.004244266960195836,0.03708429181144729,-0.030371876448537533,0.792208760682995,-0.22468026918279327,0.02026421699434322,-0.03396274216354739,0.05205642166901281,-0.12612843561849008,0.30747029285233474,-0.92002721997302,0.02738877145046248,-0.035701769279781304,0.04632756106942776,-0.17115256684293578,1.3897043934403526,-2.94790928014598,0.019515203694213917,-0.03801892374980731,0.467862574678383,-0.16695843944046035,0.6649877329214342,-1.8097248649681201,0.00819216668085787,-0.052131207831833115,0.29472513412063206,-0.17941408591413988,2.957246942752679,-1.3991084543136068,0.029873963167425688,-0.043467847896327655,0.41342342251511144,-0.2577979303233566,1.8018593784598016,-0.2508644659147389,0.022382473396443614,-0.030847963518577853,0.1876466020817807,-0.1349036636413482,0.8338189960160063,-0.5048256886619101,0.01673847791880012,-0.031167660490450166,0.04882044357498694,-0.1808538678329591,1.0
28,0.09595129227201749,-0.8113621491242342,0.02674728037761004,-0.012007085915970606,0.09650337191939551,-0.0839523097853564,0.3352804813704867,-0.2635667613230397,0.07833058665078635,-0.09082555864489424,0.04103393059458876,-0.19395550817488363,0.7236736786961031,-0.19399606950336,0.050460066949016724,-0.12036977846750971,0.05085279162966411,-0.3189061738020612,0.1755442488790125,-0.932796893715097,0.09767111163175257,-0.050919672985807574,0.17452276161730967,-0.16284268097900068,0.11312126781179262,-0.6883056116615276,0.014800210380789158,-0.005264956686156119,0.04443303049477376,-0.09179178102913865,0.5321521273818748,-0.07641130250691552,0.06726730943628381,-0.10877002129374189,0.03965989229188188,-0.2593319105301306,1.1177124296686527,-2.1334043832324454,0.07639221558442022,-0.10751863846196646,0.5905470047651966,-0.00638851063728596,1.2037200318740446,-0.8186119409168426,0.04908896082070935,-0.08247029512960702,0.2222535761686154,-0.19951543761403723,0.9658895365421762,-0.32167041919273864,0.0228762460373233,-0.0770520487983884,0.07315216437911054,-0.3924567430662922,1.7820136602270282,-0.7367913796927639,0.07651664489607352,-0.10704311432627628,0.2661378692301293,-0.19788654301135883,0.49408957990094915,-1.7584733705616762,0.06511768420547642,-0.07785983733107987,0.13918327356513843,-0.2900708924945856,0.3518606348063897,-0.7946891087936814,0.07754733885088261,-0.09675065828487087,0.10494646349815845,-0.21298140385192038,1.0
29,0.2785853630275904,-0.2059167659222177,0.01969992533000503,-0.00827853042869231,0.06324556534288961,-0.041827310495375636,0.9517804314493613,-0.23703876277187355,0.07600400372454491,-0.06550520787690783,0.21842653672062937,-0.1285751957876124,0.3881946526348746,-0.4214671618592477,0.01909793244338942,-0.006812679290934764,0.12209057387934708,-0.021681645812658856,0.6359683559199025,-1.728218756478822,0.06749420880383844,0.0,0.13581499666272046,-0.512476913519206,0.6203482198284522,-0.20093605523049468,0.0206942497969545,-0.009352625654158508,0.1065041096075085,-0.0324167810731911,1.7379710504782289,-0.6712738490643317,0.03919131330425912,-0.06382821036539406,0.057882836298840085,-0.36872692778354926,0.5085941686965505,-0.8593450133726075,0.061686238862201925,-0.05851660131687886,0.1766623499891924,-0.10868571138322092,0.35283240635538915,-0.6045942390447406,0.011302954668968912,-0.017485412998029026,0.1389710972186845,-0.00522432835646125,0.25445471550681587,-0.7178446538056353,0.009830558315360782,-0.018092515917250918,0.13192780032989943,-0.006530463426602406,2.2674820696964515,-2.2181496504812133,0.025968335083514815,-0.028808367753476116,0.4046320931724426,-0.27672402963297593,1.3173745188157264,-0.30185479958103034,0.10203868559804999,-0.10500392900754402,0.2458005235923123,-0.1492330124002589,0.6242921391405823,-0.41831935905308704,0.1143670008695492,-0.10171873499372247,0.3039104300782399,-0.07559099429910096,1.0
30,0.19759287616752097,-0.42554797625729784,0.02420563477303067,-0.002862423982455675,0.07174176376853639,-0.0804557253421671,0.05744231797196525,-2.0478546114345333,0.08609210095403402,-0.0714651253594161,0.07789179072157404,-0.3486052064038555,0.28076453297384363,-0.7611680135613361,0.00873994966873648,-0.012523748902274812,0.07672848373208574,-0.08277606598128484,0.9645300430842605,-2.609154424702276,0.15717335835898583,-0.08158864777741981,0.3648375997989645,-0.36830918999701934,0.26330853596697923,-0.5420086566263976,0.016056175134412765,0.0,0.06926145137588585,-0.08334393484142757,0.081676692493442,-0.6671077648634902,0.043937892891925734,-0.058683724105167104,0.0,-0.3899067847590748,2.475122614832734,-0.31045738289097247,0.007911175624429168,-0.02201923036668707,0.34889590830970774,-0.06292468342978891,0.18850032295246158,-0.21755854431186986,0.011045201592942644,-0.005931239811884481,0.05787102995880916,-0.024833357717111815,0.14063027973341352,-0.2071738215683313,0.016495718624245037,-0.008374358405004723,0.07026283453708687,-0.03582244941771506,0.6941325815002382,-1.2579820096863303,0.13573652272366393,-0.15825067060514292,0.44375102240598996,-0.2210111701217434,0.2854472152079466,-0.3836403991824655,0.07987415148349236,-0.0948058815304357,0.1645503078640247,-0.11062405139940676,0.0,-0.6676640479184919,0.05533837376869932,-0.055532352088780074,0.04539965313251354,-0.12548232178596494,1.0
31,0.4255557818321723,-0.7596617138760577,0.025635287933785667,-0.02416591874097407,0.15242243724880222,-0.07229858712927606,0.09328090903274056,-1.1114626063056854,0.01203976188422018,-0.041226064461153566,0.0,-0.318786186250815,0.09779837237606097,-0.14929110313669366,0.011003063067906826,-0.003566824687079584,0.016224294854660593,-0.02302906203471078,0.5117439451648864,-0.7864054062926987,0.023093067778916287,-0.0374767783556097,0.08652337371138058,-0.1814088023884335,1.139495106502205,-0.32236939905184836,0.03853852064691671,-0.03200239529803112,0.12558266233331583,-0.16387831566564837,0.06469081573981628,-0.10472440441139186,0.00499478840818901,-0.0036887534589895576,0.02196269203091239,-0.008091668887408754,1.427215055166473,-0.12269558232252509,0.0020417237423127066,-0.03074681403544241,0.04520470185336256,-0.21295956240562727,0.2941547876200356,-1.30654493706147,0.01329292137627569,-0.03247893271020197,0.018822101408271785,-0.27225869335343544,0.06276197906912498,-0.32687050103034077,0.0034769231241038034,-0.013775389395637605,0.0479778864949697,-0.043955849379691214,0.08077938521266045,-0.20843045870156598,0.010620790493264143,-0.01527668032252627,0.03309200017623781,-0.029735026336075943,0.11366413461527687,-0.14346511490698827,0.01800897615224173,-0.022162750435204437,0.0437589842617373,-0.026558947212906414,0.6628985520275177,-1.1491408376164756,0.006063933867793858,-0.04115048123095,0.033384369091467914,-0.2967826544545515,1.0
32,1.1102230246251565e-16,-1.0863854078248485,0.10518177399622786,-0.12043724575216169,0.22202798311470962,-0.16480063004665302,2.961029375016766,-0.9114764836292746,0.07393825653236755,-0.06565774075126363,0.5952309134460751,-0.04467954527159318,1.8535732896316743,-0.9134456536103008,0.06821591353223555,-0.06010758609982514,0.4715182188384352,-0.10033342873103906,0.6488744350445536,-0.5981222022088065,0.0918704166403535,-0.09676570083823272,0.21463366642167597,-0.11457907973750736,2.1688251716788853,-0.6545450480319748,0.042344391166757145,-0.12636991375900025,0.3083756587547599,-0.3530911862653743,2.259888135881785,-1.085436364476309,0.07592920799686809,-0.061032752962992876,0.5630018244193569,-0.0255675422497067,0.5376213982292886,-1.9424604652024486,0.08237693740258789,-0.1059626436820092,0.267565936641597,-0.16532110435450742,2.4292995147963166,-0.7389451959889306,0.03783062373407614,-0.07497103845173492,0.2905289817758664,-0.266903358537259,0.2725345945124986,-1.4640690508443281,0.05135745254939611,-0.07792139505371948,0.11177794472368252,-0.30334073759582647,0.2424998258249053,-0.655807900740403,0.0666465691251571,-0.13332144821614633,0.103688495405581,-0.22207233475161559,0.29738717461790565,-0.41111291842897174,0.08041460428735814,-0.12380355377733088,0.1614139184317847,-0.2153446132848108,0.47340471580590315,-0.4606627120998387,0.06548184200679885,-0.10568670096544988,0.10945155631616488,-0.23195680514902745,1.0
33,0.46416649951530753,-0.3222666540250353,0.11146447642625626,-0.07846107124295731,0.12642489464133627,-0.1842050527928465,0.9787569348452646,-0.8187221175771299,0.016196887319691156,-0.08064384323516266,0.2744229773371577,-0.13827349365105407,0.47220165103108847,-0.43066800637319336,0.11084074898087734,-0.05857715430891658,0.35652095321393273,-0.31409577018761914,2.0869079352926323,-1.60336233925286,0.12489608264782309,-0.06289863200565138,0.13315278943657793,-0.6230057370607818,0.36305012807057335,-0.562333244004239,0.08477268575825886,-0.08967783323821299,0.16824859497243017,-0.33063459831332453,0.5858370865729734,-0.05249694523154774,0.03899070494543316,0.0,0.05849492116490984,-0.1240260541328867,1.2941931702434044,-0.5135114697961337,0.07480772453715967,-0.018196258925308073,0.1851834426058827,-0.245619649386304,2.0457070688641235,-0.40897369692241914,0.04974550050171567,-0.09818313764072381,0.16537994157793368,-0.28505638146370316,1.2107335464408573,-1.2597968567270557,0.012160685138246086,-0.053037282049266665,0.07194174507181861,-0.36849740087794525,0.820010470377867,-0.922861454469079,0.09373508851403478,-0.09824206286401127,0.0,-0.48366599194870286,0.18481345523794834,-1.2533318965710472,0.0165023300718683,-0.088909404166857,0.28795654033072193,-0.1785193254242723,2.1260341513804155,-0.6879323491791052,0.07753329728654618,-0.023144893048285986,0.2694206993595216,-0.2916528180221388,1.0
34,1.037431691784568,-0.3140670951306802,0.06369781981899614,-0.09126252372805033,0.2986092876430421,-0.19079121868953824,1.3112551549595342,-0.15802408474215135,0.05135989322595358,-0.03270841139253605,0.2589727663610445,-0.03486453707804399,0.30683547779094517,-1.6496821458916695,0.0505860016052786,-0.08894719922411176,0.12490191389571009,-0.3972417778761729,0.6886944518247692,-0.5663654438699457,0.02306091856552514,-0.030512326565173997,0.03620671925113517,-0.2058797870469588,0.21409123912784017,-0.5059607179842435,0.0040694658111829485,-0.07246105439302852,0.18573760240521708,-0.295478991991744,0.6813956425016003,-0.1834474176980207,0.03447241377981819,-0.03722859438227,0.12306534473167657,-0.061315902071320705,0.1799311946006485,-0.20088055389899923,0.029260430527962344,-0.05293459574064677,0.07254092562036368,-0.09520906693139441,2.1486038590503913,-1.2225789316881888,0.039001679271220696,-0.01655105325932904,0.272106945626454,-0.2501509119726136,1.1900395842726101,-0.022084493991119114,0.008673056114586436,-0.025046873407383985,0.2192908181774133,-0.008500052554741289,3.996265865211102,-0.15044070138119392,0.03876937102122363,-0.04068518883603803,0.5185426858424831,-0.09600773983117417,2.0391909991156028,-0.3615106387220913,0.0332827069850542,-0.050155637502726946,0.2965585890082902,-0.12368698410441986,1.1588834012076235,-0.2676112822244979,0.03105021762187321,-0.045182275677290135,0.19031202772994582,-0.0936270780736212,1.0
35,2.6281899627284204,-0.7825824116126697,0.04007201358882262,-0.024424701802328252,0.40928248568992154,-0.08186288244459511,0.5881770032400009,-0.6834962676050613,0.019571728486856843,-0.05691047428667706,0.14840753424027542,-0.14498413871386995,0.893436914661025,-1.0235195797629486,0.014870616849411489,-0.07562790049263579,0.04467065759147537,-0.36722635495130734,0.39164152714054057,-0.4455880233941167,0.02070587920663508,-0.007466855831628955,0.19278982831998065,-0.0220886694800711,1.088164685400524,-1.5116473936493688,0.005767123148161246,-0.01970296621375517,0.33089543465266585,-0.03976187452353286,0.6058168191672235,-0.9038160453384148,0.017202786117522906,-0.06606650822883864,0.10218878992290392,-0.23625205357143647,1.284711248147993,-2.5694224962959864,0.013644509677069094,-0.043164730300026766,0.24184822026484676,-0.30161283299246244,3.0128448051684904,-0.40464060167760185,0.03649748208410719,-0.03289098026099635,0.24608385900673418,-0.2521160144486425,0.24709231623782213,-0.7054493949259242,0.0032310488768813317,-0.03746547827516439,0.10916695093510115,-0.1394324223556665,0.528070178120186,-0.23285985330743575,0.04829724253990464,-0.030340611080837854,0.21745029535370275,0.0,2.7660207138761503,-1.3830103569380752,0.048886248708957275,-0.05866656739989673,0.29540027125496215,-0.3081041433033171,1.7628938797922282,-0.031710219383608906,0.001240729278926489,-0.010510523169625918,0.2577097721821316,-0.0010694692837315278,1.0
36,0.13838445678697867,-0.8333603126450394,0.08573754312385717,-0.07091335629977998,0.10686862152063242,-0.16780600685129796,1.674949277359294,-0.7648949598669967,0.0987037124562764,-0.10019294537990459,0.2544492426253109,-0.13321409738866702,1.7994328324336468,-1.1873322850527375,0.056256804918871695,-0.05323398411918295,0.3452014199079531,-0.18335653890496995,0.4319502966521219,-1.6022347028424089,0.07757801806521608,-0.06748986216064032,0.29239346302794245,-0.1515300895758977,0.6576354811902698,-1.7984030672501754,0.07988052287036071,-0.09933565871156719,0.2531055300078245,-0.16094234997408358,1.6572279247943622,-0.8414666817331873,0.0958820998086527,-0.10164811701180337,0.2694467706990332,-0.1111444722312453,2.518529796522346,-2.2147386920722445,0.03899676393458362,-0.06300849538802161,0.48860996822040914,-0.353434612795771,0.16954287348900648,-2.5547432824291954,0.09080467180256263,-0.05736111613327505,0.11820283920357949,-0.4236266408302144,1.074406293804982,-4.095733417618533,0.1018891702889434,-0.0907323009687096,0.37695941481340245,-0.5331681096350058,2.220446049250313e-16,-4.744285495378624,0.10243044716968502,-0.08447730918484778,0.403651689443863,-0.4956119249302804,1.3352327212556072,-0.8051360906207685,0.16082613354301212,-0.12191983607441179,0.21223543243828558,-0.24688300045178027,0.5951422664457735,-0.6429609263667919,0.08893339730409028,-0.09547195075524795,0.18983966295297106,-0.18560111214677896,1.0
37,3.481097882822286,-1.9791536570175177,0.038731926976369846,-0.0504387598471685,0.5950532069426764,-0.20988721162694313,0.8618870904184731,-0.7689075685407853,0.04400057482756971,-0.04570901345610101,0.0,-0.34132754916208674,0.269016789687232,-2.384071955956977,0.05355340164817188,-0.05020598357532757,0.15343382551182028,-0.3254153894750842,0.7917264933862843,-0.6140179389373649,0.0019360485417052042,-0.04937919686787473,0.1185279801715452,-0.21127836784996173,1.2052508372678947,-0.9730066155369386,0.04426399422970606,-0.04471949878158277,0.14042797280484504,-0.23700993689267547,0.9649450149087127,-0.48116462357517714,0.03620036463739612,-0.048691985454121955,0.27236262616781953,-0.016465617444923808,1.5883374147197082,-0.4684462377211106,0.047324713585329026,-0.04511657049466786,0.28479246636725575,-0.07270990688749107,0.6337056317474521,-1.8783417968368266,0.004477764189774164,-0.02922202650574013,0.2759394690038904,-0.10944596986837413,0.5861398816015095,-1.2877628299005763,0.05859197967196775,-0.08256849080960363,0.2921728224199976,-0.3293749342303769,0.6133618304784633,-0.6333319416278367,0.089546944416007,-0.12892551576300548,0.2396697522607119,-0.3097358010658895,1.098603685438404,-0.8298535515612215,0.05471347458060721,-0.11471392807918909,0.17473360444287644,-0.31953176162624664,0.30163408129965824,-0.7518167924928902,0.06466740089951123,-0.052242023132636206,0.1335993804088203,-0.10010591310518152,1.0
38,1.168170776504167,-0.7543791023211881,0.019547958012454347,-0.07402955405201578,0.3161564034246057,-0.06285556113247476,0.021740377627895602,-0.6571721977358523,0.029251117981494046,-0.017556117807718652,0.11041255570017855,-0.06849585267856245,0.96939237102262,-1.4005274401075116,0.056533428936364205,-0.04103653583822535,0.27910033512230065,-0.17982853928906106,0.41857293386512073,-1.218726326342262,0.0611164137384016,-0.028626706077929442,0.0,-0.4236173050488261,2.6170316699331857,-0.4617151791267667,0.03039276003623048,-0.06071729610542659,0.3984961510742651,-0.06989706474789203,0.11461280259287304,-0.1426987950166328,0.0246188017291607,-0.020102439512820314,0.08812667543920205,-0.0013871734324630292,0.46160966326747777,-0.49457192906241687,0.018390239946379783,-0.03289562800894663,0.10949021022300642,-0.09838316743760112,0.07240576453492839,-0.24287915782443328,0.003937731927260768,-0.0035097516956483776,0.03535560226686485,-0.012885758914584322,0.15834627993205622,-0.4745141167814524,0.005821661741902684,-0.0019957080881453093,0.05341755652518665,-0.039537549868032484,0.19575077239652316,-0.2479866070578226,0.008294425670300143,-0.0020055119622648387,0.05165519074100533,-0.020199715875704904,0.7831754735719392,-0.5698827177679502,0.07008839784646947,-0.06389176387487325,0.11100749525975878,-0.1442954003945035,0.318689502817207,-0.19391634802852326,0.03817902089261145,-0.022789511160399123,0.1454192812309055,-0.04694835680373252,1.0
39,0.5279256361036199,-0.3413665694874401,0.06084260000580105,-0.08485413984400529,0.11020779038915579,-0.14052861759741697,0.7703620240167618,-0.5613398616629824,0.06945231378961092,-0.09426295513852354,0.13454506548354478,-0.19778482704676237,0.8574397934249625,-0.7312200025692862,0.07354711764230587,-0.11925003420868488,0.16470981188823192,-0.2529911734539706,0.48102718003970146,-0.047530453048085564,0.0,-0.059911243138657866,0.005097924317796099,-0.3654640864907066,1.3503621668884263,-1.1022574605828024,0.165363724661193,-0.24509322849226392,0.30934816574795476,-0.41753831835821353,0.7665134785371098,-0.6624438190015435,0.07103057811862445,-0.1022310260159005,0.14773335213747862,-0.2182406052890921,0.0,-0.5995764505695738,0.06231275941422676,-0.07115997507347888,0.051201256056784716,-0.15959770361864234,3.1320840651227897,-0.024565085084331875,0.02814958783818433,-0.031891967955925304,0.4325758244833798,-0.007103220320603398,1.3914092854454596,-0.879897348110983,0.127712604814969,-0.16843830196155635,0.3778296101753291,-0.1553669420800753,1.6248726327803789,-0.33711220124715874,0.06403769716142943,-0.09371938164428364,0.26873048433001545,-0.15263879231054872,0.8219958750823391,-0.6511589662422821,0.07629445118695649,-0.09941229233388311,0.1331299039339391,-0.20146114312206964,0.7417075109363775,-0.39624806718745337,0.06642559251869157,-0.08336544440468155,0.10787602824674303,-0.1655856596510124,1.0
40,0.292494836916697,-1.4828111545065341,0.008946734309771165,-0.07698735504103849,0.027062811630363726,-0.4303391968231643,0.6923892759002214,-0.22142776616869697,0.02153059225404641,-0.08128037207544007,0.06374152559576926,-0.2325094528474401,0.3546158600564977,-0.3432780370498738,0.023451521325903557,-0.07211612516239546,0.05335787014853616,-0.1717393193680533,0.8826259147102866,-0.6202910372173143,0.10369580317658467,-0.052275371500977275,0.27846229781811904,-0.010655736737107846,1.528479051416521,-0.47427603202271484,0.022132455499752512,-0.03641279178653506,0.2391805371870781,-0.10255923800807265,0.6017269493038198,-0.2508274821443738,0.02313279580712957,-0.0849109762163949,0.05982917719358524,-0.20243935706481506,0.0,0.0,0.0,0.0,0.0,0.0,0.0,0.0,0.0,0.0,0.0,0.0,0.0,0.0,0.0,0.0,0.0,0.0,0.0,0.0,0.0,0.0,0.0,0.0,0.0,0.0,0.0,0.0,0.0,0.0,0.0,0.0,0.0,0.0,0.0,0.0,1.0
41,0.875021762712393,-0.2737840321841296,0.04962548432416758,-0.05017347660546412,0.15399029996888292,-0.11583414657934682,0.044434166597310254,-0.19046091312361946,0.023714088855885995,-0.052613086706528034,0.0,-0.25920466118247143,0.192980691179796,-0.25503135143914335,0.03130281396171808,-0.054516582716595874,0.0,-0.40238633181745376,0.1295669005567046,-0.09849271833908202,0.03129936170536063,-0.0512616033516603,0.0,-0.19405389292977793,0.9098983562184051,-0.7402814242698164,0.01717405821711057,-0.026888864167397553,0.13533813472936312,-0.10142570201051082,0.09725355774994715,-0.21632081185021823,0.03014552839962556,-0.05802534784251642,0.0,-0.31556328062278755,0.549867860199103,-0.5975672100171745,0.006369508597936946,-0.015620970472592255,0.06476696497900614,-0.11871095494500261,0.5505424167037165,-2.7493262775169596,0.016287694706101363,-0.032733005186700415,0.4025293557562832,-0.09772246541317303,2.4068913090948727,-0.4849159431893589,0.00405809637588439,-0.029688776686231266,0.3695709926050349,-0.025509522862027012,3.7738884865664666,-1.2677091705830932,0.0009449950170694055,-0.04531507098869725,0.3581690907486293,-0.3872772209703761,0.6024452648678489,-2.1073795590990847,0.01872889405130429,-0.057989621154173054,0.40387452007084385,-0.1278059485750488,0.4493429579650864,-0.8883412346563271,0.03178849451947291,-0.05309582631611545,0.08149329021655793,-0.18898834981055918,1.0
42,3.9032736821382654,-0.07389159772607501,0.018672043267444316,-0.06115466347517445,0.5526459746170029,-0.1512320284596011,0.5879308198002754,-0.11937606192422001,0.06511579385487476,-0.05683863892179809,0.08603202738620747,-0.1489149777109566,1.1152084625737577,-0.14864710926541358,0.06298336962027312,-0.063289618162969,0.03667313257501964,-0.279271491139638,0.35860158844604184,-0.49069088441861597,0.06650693274365016,-0.05443795679615088,0.05045032432577812,-0.14255558688363834,0.8479878581668991,-0.4239939290834498,0.045687308359417284,-0.08981959627679326,0.03501440003787304,-0.2915552319312993,0.727810808872573,-0.6508858065021352,0.06430541157528064,-0.0602196493657524,0.05816444136876925,-0.2867161674533655,1.663159297202955,-1.6769419914260135,0.024204848547703578,-0.048807977973413075,0.4630526382296228,-0.04793284621699978,1.450239147921572,-1.7086471449027365,0.006500917296361375,-0.03574595096371744,0.4445417009020148,-0.10764132411574823,1.4582530708177928,-2.18792081586552,0.09550079015693969,-0.07124059854402026,0.42070472332245734,-0.17247368796677442,0.5233175082774819,-0.1625065666402974,0.08464252607133887,-0.07029295088655882,0.20798013256491144,-0.05797652363753203,3.4603282831759636,-0.45093426302053474,0.02378399536957354,-0.04598459500722585,0.5189558583864448,-0.0240669065388604,2.703512052501387,-0.21513319129419345,0.024992884510339264,-0.03355281546813027,0.3213867551164942,-0.10077301831337493,1.0
43,1.1633357646156577,-0.21941167499434822,0.07787340197379239,-0.04959986046552356,0.14603226103958195,-0.2584413764770445,0.7319765887158677,-0.378753456476145,0.06315625124216018,-0.07357779826895108,0.0,-0.30682822711680957,0.35830347905180693,-0.6945239390297273,0.06371006439643084,-0.08440620179708272,0.008245604809811569,-0.2732325173690534,0.9726837897836835,-0.20086402725082508,0.06594724689916198,-0.06202874784235818,0.04129878281924504,-0.28256278260598955,1.1418470986054154,-1.9985499742161055,0.02364489150154314,-0.09186962454920433,0.26469021772682955,-0.28550561442824196,0.4156501563097771,-0.4523565196248307,0.06339793898726545,-0.07822571799345848,0.0,-0.2843052246441217,1.2191025540117186,-0.34539856563746374,0.03148477837648067,-0.059812628684986935,0.1348171846256888,-0.1730801119700367,0.7859189473620849,-0.23123105618008236,0.027825351503278972,-0.04926288337458168,0.11052253938903411,-0.053860560917345535,2.1072801962347696,-1.7820683302888745,0.03018295137849747,-0.08443022656184596,0.2954178305090833,-0.29303271089223604,1.912064757231594,-1.649278276122702,0.06556434615284806,-0.025736504068005817,0.25555100668089503,-0.31448114730848964,1.0960657725691467,-0.42356534311971905,0.08149808231797889,-0.08436474066463989,0.15096943312779737,-0.20072641920759965,1.9033666411036378,-2.2289297745145222,0.030020753258076266,-0.053975030411533564,0.15767599450171604,-0.4581617381175457,1.0
44,0.8364738538861446,-1.1323012540000503,0.06341581510248656,-0.09946308972202994,0.11436367284714416,-0.3013686095651068,0.9576288988277091,-2.19728481680358,0.02237548112872495,-0.03698516466045683,0.04674830354172599,-0.38665590320585536,1.7590048380965122,-1.606295380016039,0.023883065676067294,-0.05057621236901452,0.07187334679350849,-0.393484524775157,0.8713105792173852,-1.5897206735836646,0.02524695378500863,-0.03859245076792822,0.05011184253218959,-0.3499821317154418,0.3013099736264704,-0.3283642742673396,0.05156280921756751,-0.09029864204538168,0.08763376846962206,-0.18722214074160864,2.6548190825378937,-0.43827113302403875,0.021022965191230147,-0.043035716056059645,0.025581432347268007,-0.38954669873648484,0.3209220222922645,-2.2151754622251913,0.007414019680577533,-0.027785519439889494,0.023744156445722697,-0.38364576086627133,0.0796095873721605,-2.1394945281264492,0.0028358098850346236,-0.033997364058604485,0.01426063252702825,-0.3679207281072996,1.6427798241998715,-0.7663341448320884,0.016643894468409304,-0.04903745644376872,0.07212433870576862,-0.36918502729882274,0.950845432260253,-1.7222002851278824,0.08476554329255503,-0.08562069067905598,0.2431776378382577,-0.31091928604446784,0.8131996404996336,-1.401911861460313,0.02534383050233452,-0.04080318587417375,0.03760595393677385,-0.38447362266101187,0.7355218487647179,-1.4528590424350338,0.012137438183206006,-0.033809558141459556,0.02013130605845509,-0.3600704491534155,1.0
45,0.7451836339187058,-0.1559064207356832,0.005118585208201479,-0.046624916655259946,0.1431054552654955,-0.16319143065047176,0.6447261401190773,-1.3164628104791034,0.0,-0.052524951091739935,0.19996265924484424,-0.26173130750248697,0.8589577222309938,-0.22642596673281323,0.0714807571848951,-0.05073958549835267,0.19131781564843264,-0.042474126666521284,0.48269065492176266,-0.3707976299102979,0.0,-0.04311821850670708,0.16315369815578906,-0.17369632113048272,1.3892590749349272,-0.2610432270011843,0.03362308615595527,-0.02694388498316544,0.20832934374689321,-0.11580525746251152,0.9226488587399635,-1.20347898413673,0.0,-0.047341051843517445,0.1867596961157667,-0.26134190726190265,0.018848469877255525,-1.6374903312062297,0.01945435719998534,-0.047312744573593246,0.2769722114508662,-0.06013960051257328,1.5363407306743937,-0.012134317666092853,0.008651361836637617,-0.039508154968517534,0.13288559278687168,-0.2428938244327761,0.8769290954130118,-0.1151423879226744,0.0,-0.03542752333905845,0.04279189542891895,-0.21532667721632234,1.8277245429527795,-1.2464319959595165,0.01302771666565461,-0.03845066537610292,0.36244344677617657,-0.16363899080559974,1.2160686517716979,-0.1980374254074142,0.011291726721188916,-0.0600913004452969,0.13432571700182563,-0.23853705970178507,0.02351815512973371,-1.0558144088675339,0.0,-0.06472512784542575,0.20597991460325926,-0.24394344196672524,1.0
46,0.10466712977905672,-0.01613818546454117,0.01669629796537797,-0.006915883572794823,0.01690906433867667,-0.03694955032681896,0.0880824653666179,-0.20356828144350148,0.07635822360686709,-0.03320402861166352,0.2762464723339022,0.0,0.09153227233100936,-3.44044242936436,0.017151066699480966,-0.04565515954961741,0.01800653581623546,-0.4638683256701738,0.14846682699131852,-2.535586167377776,0.12137403077662612,-0.02742833150886309,0.5360920600527432,-0.041158512830222094,0.12095618253984979,-0.029510377864863227,0.017166140154223852,-0.007475881177783805,0.017798431540154314,-0.04395697010903765,0.3055690408790497,-0.16023897073549986,0.032686189686987416,-0.03790144798754577,0.0,-0.18252743586555123,0.1272425703210037,-0.9614605918550692,0.056710804441044704,-0.05408921046021159,0.09492753329532644,-0.16040810298381214,2.0612696461473115,-0.17412674196550004,0.06505989590403694,-0.09898002445485038,0.38106156605099367,-0.03367107237246847,0.23447878664042487,-0.10001232691956861,0.019171295834710333,-0.007957543329250472,0.03470510685096795,-0.06523753004063684,0.17481186276936647,-0.00033163364411473856,0.019636108162181115,-0.010284640695376934,0.029918758085705488,-0.043431509655049105,0.051526058838874844,-0.1900190052794991,0.05793340320198541,-0.06158529193453864,0.15099186182796762,-0.04210912091572405,0.1598717264984335,-0.15962554634619253,0.03156126872848897,-0.05460814716526133,0.029521287383633188,-0.10761611830145301,1.0
47,0.1977215773572798,-0.4669195781470278,0.07102018849175246,0.0,0.0957472364851098,-0.36294936974768444,0.07569144974510372,-0.22863383662543096,0.05793533755771929,-0.05010052374693086,0.0,-0.14185781572501557,0.21764011222013602,-0.4053114884035961,0.03795577575780151,-0.062028614252751246,0.0003139162848568855,-0.21972995705186546,0.4243298739208759,-0.31557179941998276,0.014943394395348863,-0.005871858657886753,0.08859063572530601,-0.06430621244318813,1.9189286049629966,-0.15479060728631602,0.018647240550394406,-0.03374813655837561,0.2542567027097419,-0.056184452789859396,0.1271573468945718,-0.3913974792856679,0.03816144305069197,-0.054067018745693224,0.0,-0.18144412656516198,0.415847600970621,-0.1870744560867038,0.04604790477083254,-0.013050574937086945,0.11559143883186507,-0.11469045301116687,1.853795118380687,-2.1860204935518865,0.008097687736407039,-0.046077530429648156,0.38740984734913897,-0.20597804218967108,1.0402215427023043,-0.13183856218712509,0.0860655612258916,-0.02687392570742239,0.20745664159429156,-0.16308337579972876,1.7679867425355096,-0.27236807075874536,0.0858235683263448,-0.048502261454871215,0.2703148616345724,-0.14342193582076646,0.768044939355804,-0.15897898520601167,0.008321900739208937,-0.015526651761951005,0.07447303694128138,-0.08274285659455938,0.1968780651306925,-0.44765748988246834,0.07529659505167463,-0.050267960811298,0.08118542764627934,-0.09366495437236061,1.0
48,0.8531358763908967,-0.3293869737234165,0.007576509959228539,-0.01306937870775493,0.20337380245646408,-0.01751929957273246,0.08202124493667845,-0.9346617438148789,0.07040879319598997,-0.08037677858064951,0.03010083374475997,-0.27935196624303305,0.3134338132406419,-1.8290175763202765,0.042570897531815935,-0.03764605974359461,0.03693029185525715,-0.3715470188251701,0.01298061081032631,-0.9284393686606307,0.07069276676625652,-0.07201205446002712,0.06898466704728118,-0.2585394113116378,0.12870824668784048,-2.881234371375727,0.04194409450261377,-0.022267729660197577,0.05286452277096365,-0.4666959383072695,0.10160077925506583,-1.6014444619953248,0.043542967200220994,-0.061956225425376266,0.0042600803641928975,-0.3599272662406298,1.645648875673758,-2.210003169056722,0.047381713528056646,-0.006776018042417453,0.27374306838178064,-0.40152709370674544,0.23232588612941613,-0.8985247596975408,0.012196862461953006,-0.016152641983051164,0.07651363577932896,-0.08917224196239204,3.156596726797342,-1.7746392912132185,0.04961336999085801,-0.01784200807377856,0.46642678807320503,-0.3564396010339928,0.28366717659145824,-1.9160832503939986,0.04820425374819946,-0.031921477810043675,0.11761369490349449,-0.3461896359646339,0.6533707827880031,-2.0006963265428643,0.05261428630903775,-0.07004125868039579,0.2678233708515632,-0.29667857677738374,1.1457194588416553,-2.2914389176833105,0.033679012151506704,-0.004319960656951893,0.031127940466043502,-0.4868648875247349,1.0
49,1.3613016451166176,-1.1473453967661449,0.045103736744494916,-0.06593981740989506,0.25925010501554435,-0.1962248283687545,0.38289215354144,-0.7206098705282242,0.04479751024129336,-0.06974429120454567,0.0,-0.2793140143865309,2.756683738510997,-0.09351013002879838,0.041865659922891235,-0.06985608658998516,0.18699600960584073,-0.30114258825939444,1.0616569127407884,-0.923154800081256,0.05333490348030989,-0.06833817842268047,0.1569957114469237,-0.24850830527691337,2.3403878006180587,-1.408320005236761,0.031936953161655735,-0.02602233435033252,0.2521738049611246,-0.29824119106164426,0.5062160599195835,-0.42350637174685546,0.039931387552470665,-0.07038361471571386,0.0,-0.282686084655259,0.5014379488997482,-3.1392191184838403,0.012617147240518212,-0.04714894181690721,0.14954101739511477,-0.39283647562961543,1.5954184792939472,-2.141609601858005,0.015932484828054594,-0.03126504683876735,0.29303220824378673,-0.22820391265673956,0.47068005174850014,-3.2683757352341223,0.02877697409418778,-0.030055432619734312,0.3099315698635864,-0.22368545152877561,0.6237888531841767,-2.2438116221115294,0.028239933223109914,-0.021096034703219912,0.29529235909164897,-0.13578989347405346,0.4829419380118958,-1.9022673437055473,0.046026123094294824,-0.01470570733428983,0.282261760456197,-0.13671132911710593,0.39002432837953327,-3.084747755648488,0.01811636738110456,-0.01773777435935553,0.297293344235749,-0.19710246740892912,1.0
50,0.9283431755092498,-0.3181652110201266,0.019963247731928424,-0.017298665572089672,0.04621280092237584,-0.16036301447035362,0.7162423042553975,-0.7392488907223692,0.011990042121981459,-0.015261146925405922,0.19954169163732405,-0.030139827348434622,0.9599231781574746,-0.5297230735308832,0.01159909243845303,-0.011997683046565788,0.14759569919625903,-0.06385112385992031,0.7735104440624362,-2.452601021595355,0.03707143930806711,-0.03131680189241354,0.23927368542277327,-0.2541919764508416,0.5056403416630655,-0.8339852617493567,0.009329829198514994,-0.03892118510653633,0.02261185733861193,-0.2706134154028782,0.4368700777058212,-1.063087903879757,0.012269961387039952,-0.012817078914103108,0.15908255710614416,-0.0641644723537696,0.8980303315671709,-0.9719741595677305,0.05543437406128843,-0.06758001169069347,0.1217127203773965,-0.39961502700108775,3.3673346934843265,-0.23512452746473195,0.014331520468793157,-0.02528539712737754,0.4456650008910511,-0.09651395967537235,2.491483846082825,-1.369352468721074,0.046989424815568226,-0.09540712659248737,0.13448103317427035,-0.45343407594080054,0.41021800661278873,-1.0823976984536214,0.008224608538731526,-0.053396536940313155,0.07750724057429303,-0.2820634340746804,0.6442129436849524,-2.801013455028428,0.07423507672358243,-0.15694531116962418,0.25984146076681663,-0.3230354550126492,1.3410240727986578,-1.939629994029565,0.034490025939043156,-0.035277818856624954,0.29965276804133634,-0.20207059475956402,1.0
51,0.2721030248867853,-0.1911441620270502,0.07720780850185327,-0.09006488249979466,0.03752173128925057,-0.19208439269117653,1.0480496588312715,-0.04142322501925766,0.06038737563253721,-0.06919838208003934,0.0,-0.32011429916358214,2.2990315704050452,-2.58198553709102,0.05407156123856427,-0.07299333715473721,0.2977783727858845,-0.4173067430443956,0.23869679363304597,-0.47105648420564306,0.0710066367437574,-0.08129534171868635,0.0,-0.304781573609181,0.4025013519353553,-0.8050027038707114,0.15022606627481122,-0.1069509939589181,0.34434117113073154,-0.1002842482484334,1.0682231292954987,-0.14401924660760423,0.06642515496584589,-0.05865438594050407,0.0,-0.34766866203577096,0.12334008728524726,-0.6057699249861623,0.044416633232228886,-0.08245468207941303,0.0,-0.3990501806038245,0.4379546015727602,-0.7012087264145259,0.019691987911550385,0.0,0.19917051713021577,-0.024153073472507447,0.2943832365948653,-0.3563610027645565,0.023280385057399156,-0.000953565377424137,0.1800014189222377,0.0,0.4001871237528313,-0.8872265691221426,0.04034040939237174,-0.011190557139287571,0.2370716346986897,-0.13041908048048903,0.44832763667481373,-0.6516622684489177,0.07120729156091096,-0.10517683211909498,0.11878039209896979,-0.25624229432488876,0.7206642003544905,-0.1799111968186382,0.05158189154488746,-0.08918209359774304,0.0,-0.30002825369921016,1.0
52,0.49573051921360445,-1.1632370885853813,0.031745663174985256,-0.0382299528640071,0.22100465498095717,-0.05129337948119267,1.6006096930674452,-0.3536889904946523,0.01985081557278523,-0.06745829899089534,0.3107913531954601,-0.03713850216922987,1.642010262354918,-0.745356865684528,0.014249725137841729,-0.07609985581234174,0.3275969470217079,-0.0722142111892051,1.2529004447795018,-1.854531695142193,0.01909054633343471,-0.054190733102513766,0.2592932317020296,-0.3500482101323089,0.46433688539464124,-1.6450960855133019,0.06678990103107191,-0.06868990520259155,0.28613606268933645,-0.20502010747821642,1.5720816813246028,-0.9855709300275866,0.018666630157106234,-0.07636322809802343,0.33672075776663263,-0.15526349153800517,0.38473901112165676,-2.7686923961552465,0.03413264046749814,-0.008546486373594897,0.07028151230291146,-0.409643870228761,1.3752688983456371,-3.8707536696136535,0.018457967819606985,-0.0199592016532375,0.39703879978197293,-0.31441277827029585,0.9258000737679557,-0.46290003688397796,0.01124082266844778,-0.0590436966784052,0.34493503986395996,-0.06919811056661507,1.5937131177846255,-1.3469236217986302,0.058589996722280546,-0.026330493722692694,0.2942572866108629,-0.17572768627621732,1.0817539385155974,-0.49141162142822037,0.043917433660931204,-0.03384873160021479,0.19882437003643538,-0.1387582729273361,0.7523405814057791,-1.6547630102549595,0.04762231845276976,-0.03486088061926723,0.19721309309173501,-0.22194212855862316,1.0
53,0.0816988092626421,-0.27979776152186503,0.016587954550432993,-0.00038017113834985794,0.009595778924163245,-0.07612923451988629,0.08480716505182061,-0.06037667868332673,0.01735020064799009,-0.018342693328562906,0.016341943620739263,-0.04686214832352806,0.17185645812289685,-0.08674845948470666,0.011255191392666841,-0.0315392627509969,0.003039026449832727,-0.13578184958936668,3.804039915030849,-0.2487688761074831,0.02879381076275489,-0.047865582607453994,0.33658045809991877,-0.21385514700044828,0.3474769902832059,-0.5604687214745443,0.014341612732497622,-0.010558775761049494,0.021313483812388345,-0.13353020968936613,0.1057278549035301,-0.11773544162510835,0.011104028013770029,-0.022911086695254726,0.0014473529817513042,-0.07818379466650874,0.7458890816988228,-0.815509050761132,0.03181130522063594,-0.029842731546217915,0.24452907492487852,-0.146314230319672,1.499521863497638,-0.16560821722168695,0.008517922740953976,-0.0030400363811950437,0.1913400123031046,-0.027925839197760816,2.229102860768938,-1.3986609805311012,0.026201454684695258,-0.0027198417351251836,0.45304682158933374,-0.03037982156076824,0.11663707625618011,-0.6968164831264387,0.015848267288634227,-0.019198127911254664,0.03873206180256211,-0.10098840016116156,1.9232927166682252,-1.6980101099034859,0.01308057141246638,-0.027895235678460528,0.4637487333670291,-0.06327257608520431,0.2300872365876881,-0.43861624569571656,0.01790084931336114,-0.02323473160484646,0.046652278867760244,-0.07862571134171867,1.0
54,0.1865214808184319,-0.0677985593070511,0.01505772207270284,-0.0076729103618394245,0.024996498885281715,-0.035527194776992344,0.06834451255156748,-0.015368258202634766,0.014292731066610553,-0.003503503396565383,0.010933945735292772,-0.02674040207509426,0.0,-1.8122182825473905,0.0,-0.08568934183234,0.0,-0.3854234813177496,0.056092193753758735,-0.3139706259369557,0.01567580687269865,-0.004483066513412293,0.011899097619921806,-0.04476144239441249,0.0019312411854104372,-1.2495367772435928,0.007655630124973334,-0.09295813577622636,0.036864363069442574,-0.2543932170856805,0.05062770500095626,-1.6687970023925325,0.013368260794448528,-0.07644054115307908,0.0,-0.4573499063479889,0.687341080639543,-1.2727442704598604,0.010591893334170904,-0.051831010523436735,0.04066139181184569,-0.3510904809680265,0.21022954942381794,-0.42139012889753213,0.020086425513804324,-0.08045099860885552,0.044113130300690556,-0.10855427845297554,0.31156251983715344,-0.360111765567374,0.027172208845478524,-0.006638965978522857,0.036950934419967774,-0.12201225360363392,0.13774261597712772,-0.06403927019163796,0.020042606332833612,-0.006606287620395168,0.02829112999268124,-0.02646419165989189,0.17095517006027983,-0.03316916301467332,0.03974076664318743,-0.01760379700381101,0.08748025074835614,-0.02419766035906673,0.7486603919923434,-1.1908971048413741,0.01456300635847596,-0.06999127574344766,0.0,-0.4826360766598081,1.0
55,1.1815104276144521,-0.31056122907041284,0.024016428017027525,-0.043380797902617715,0.0817101488434755,-0.19181868142666286,1.4848492666033488,-0.1642218710372465,0.011335359442961462,-0.026169233490454608,0.14557239097055413,-0.12730608139391422,0.37603834783913925,-0.1508321930383003,0.02059227832910987,-0.028365437542791187,0.0,-0.16086705796959794,2.0520764948200525,-0.43535457107713993,0.01890242041814505,-0.02650437545717854,0.3070677202417327,-0.07072767951215553,0.0,-1.125239998179623,0.0042215311039258685,-0.04312771455718495,0.0,-0.172741750832911,0.18538187266731565,-0.5792209121231496,0.01687017659573037,-0.026910732769881388,0.0,-0.18469265311101907,2.081109607151443,-1.0767039824156315,0.016069689804625642,-0.01587496555907958,0.3404787499606806,-0.09874865971799096,0.0,-2.74063471213133,0.04793951034659219,-0.041234721409098285,0.0,-0.40572574949673706,0.7992437896943122,-1.3027291352111563,0.030318015386249952,-0.05147684845911907,0.1350449764968245,-0.23515393642492843,0.0,-1.156636196442522,0.027768437946315602,-0.03281693160140092,0.033380563523746964,-0.19094359073506656,0.3874328950370149,-0.40709241172080324,0.00872568387998826,-0.029527709470275013,0.03838966376412822,-0.12019171374696738,0.057154720053805896,-2.1091606617167753,0.011261138760305378,-0.033597658499438215,0.08890678897703252,-0.2907283314607573,1.0
56,0.36535623056658706,-0.8182716176955753,0.21000551806694828,-0.0728585778370871,0.3381769634852372,-0.20518077610748342,1.49961096081947,-0.291653198005011,0.11967737973526271,-0.0353291000901407,0.4099105668825058,-0.1489035608853953,1.6139917643898571,-0.3528533705471073,0.07746128400169333,-0.07834361647094604,0.1477695857878893,-0.22394083108263413,0.12240364469561182,-0.5892539031051622,0.05087372997817266,0.0,0.18142369776147527,-0.17000184357615217,0.5243317138554198,-0.4004659496610515,0.16371969773995945,-0.06728499341622737,0.13352244095851468,-0.29974187572352684,1.2505228855915425,-0.11990807989713773,0.09210747773701067,-0.03727594407177712,0.3174385753434957,-0.11521751231357785,0.5615534142234502,-2.3767811133373726,0.010230775674505671,-0.031096168164052168,0.37516471040358845,-0.03158941274976218,2.75352175608092,-1.2004436427906326,0.02587518319570442,-0.029662129518891578,0.4315140478115824,-0.12843896490121232,1.318438020673125,-1.1544355296999536,0.03709014038876016,0.0,0.34693240425028415,-0.17643782357577736,1.735383999226614,-1.0332225838022915,0.030433481284132036,0.0,0.37007558229912413,-0.14560239257027635,1.226232897641018,-1.1883147212011131,0.03821206977732122,0.0,0.3332471435584348,-0.18401220991855038,1.4972758552664884,-1.0119145808029282,0.03442954685767266,0.0,0.3275728727000855,-0.1794915276798143,1.0
57,1.4739077684727433,-0.5649370250089061,0.1123809170023844,-0.06782417839353938,0.46173759075482734,0.0,0.8733199231884098,-1.08211983373882,0.08657654714575458,-0.020040192748686264,0.3805269881809839,-0.07060822389449489,2.2626905786133356,-1.7318883615274645,0.173343975401539,-0.1066994547659112,0.6657263525514849,-0.03352335507756443,1.16161100251261,-0.8295091991320529,0.10488352077374946,-0.04606758883026091,0.4739311785587391,0.0,2.1018107829571795,-0.32530317521463537,0.1192526776952231,-0.08500101200015892,0.5025923446926567,0.0,1.343682004945863,-1.9872933282506429,0.031971942165537115,-0.042535855817777746,0.11084733583820772,-0.3574608612061593,0.1411472922477306,-0.5429207841383038,0.022107759754525266,-0.011013941563832327,0.021461132086076862,-0.12436541490356876,1.0504829828274627,-0.05071605533977147,0.042912965275808346,-0.03281838877699872,0.18846761568422238,-0.04545936142186452,1.679552059813699,-0.9353136944692586,0.032584515103777245,-0.05850705938421341,0.39025613847927426,-0.027440563931095785,0.3171255526820116,-3.5281279613028937,0.041001066403435094,-0.0378429880230709,0.2702793559889105,-0.2691399218556495,1.9808999004350623,-1.5645292905697166,0.06511124259970258,-0.022000980407530513,0.4431725435902388,-0.12000059343080338,0.338385050275376,-1.2897860480824894,0.0225237480991739,-0.045675541574828615,0.31402346338651926,-0.06942814736022973,1.0
58,1.1335880541728889,-0.7402932657355801,0.11253392869123366,-0.030763714974806206,0.16041084289585025,-0.2689562521288491,1.5698642947116288,-0.7319709762651043,0.028844482226694668,-0.050060529713719826,0.10538926943954385,-0.34458658575618206,0.043240279629358364,-0.2984145952010462,0.02709231047359162,-0.025647842894719886,0.08868323100363384,-0.05696065050720622,3.746025113225402,-0.6549886299051453,0.08660453187741479,-0.0661414237418817,0.3830654936989226,-0.39179319669740104,0.31194078428560534,-0.7047549936167925,0.11541230455123198,-0.023410642133548543,0.09542310604423968,-0.2004971997232135,0.5036681999080007,-0.48847715994841134,0.020535082115354708,-0.037415335624515156,0.07407233939430402,-0.19146338296086396,0.5226142618917203,-0.199052228803279,0.02238065146745616,-0.027567804686627284,0.0,-0.19095786443607787,0.32524877301256505,-0.10681068278647854,0.014618751635465221,-0.03807372068006332,0.0,-0.2002594595340652,0.33998514501849963,-0.16423813439401957,0.011663838655420866,-0.032123339821720776,0.0,-0.19153605673901752,0.14537947682819707,-0.051734570378885736,0.026351101138938793,-0.03327073701446004,0.011618551738394212,-0.1642385269025195,0.9276023071622789,-0.06705497096922486,0.006730106570633221,-0.03294162552450525,0.1290943270153716,-0.05643506691153777,0.4357849880035218,-0.03817577326082655,0.03508481993799792,-0.03802362566520516,0.0028457970044101777,-0.15375178974407852,1.0
59,0.5594594084948916,-0.6009894091468202,0.023581397788035946,-0.010682279248217644,0.0965076618544427,-0.11778021403724317,0.4536813590234836,-0.29209175371319374,0.07056421712878858,-0.09712731936964139,0.001997108840808559,-0.3139492201012346,0.15563201171178398,-0.31126402342356774,0.05880905917875329,-0.1022053187855186,0.009378199240413665,-0.2693192145023534,0.4808612525122913,-0.5040586873389692,0.07890738087983662,-0.0834937986016161,0.0,-0.2979498764479034,0.359896854933071,-2.2642181620880084,0.0074860999761600655,-0.04226749533517793,0.3832095211297212,-0.03976163754969664,0.1457417398369446,-0.38833995473622485,0.06603938978397117,-0.09996658597838667,0.009643176508860596,-0.2807089917557396,0.2775697911111673,-0.35248328626422565,0.03970479921467629,-0.05519408365193401,0.06147635435664878,-0.11651546963782988,1.0041927339893402,-0.4951778157742759,0.05414693352921496,-0.08470435484621303,0.17983707831456686,-0.16474607559411958,0.8549189464804807,-0.2889207792931251,0.05482986408656132,-0.1045827874625852,0.21533402554862013,-0.12129198310158529,2.463450876479961,-0.7774418174365338,0.02047696821303796,-0.03429523556837749,0.3168454054054641,-0.1862435824513582,0.4836428362495587,-0.3163027091523316,0.07121471072857405,-0.08616276766240441,0.06779072456004065,-0.2190637509373474,1.3649080063293717,-1.2172337186462932,0.04827166601445099,-0.045372701617903466,0.22448673303444544,-0.17342397216241895,1.0
60,0.5598749081248284,-1.5714874646791823,0.06204839589138694,-0.0575696011260326,0.2159159656890407,-0.24160272726490872,0.1169052387163001,-0.9832976880225353,0.04034851795972888,-0.04316462170086066,0.015433423061506357,-0.24386797400513038,0.277180517643227,-0.4588264528017214,0.03861567554403417,-0.056773958557218285,0.00044229932489098234,-0.19421407699382598,0.2176983668152621,-0.8603661191038733,0.0286889962561217,-0.030718969429563592,0.023337058912547226,-0.2068004218544503,1.1239319466448756,-1.1479390865368466,0.0961623793175666,-0.04945502316978792,0.33541224959397375,-0.2119542011021785,0.08428146579574014,-1.270210162703958,0.03487749911743404,-0.04785488465700996,0.0,-0.2897633796436635,0.5559173664753501,-1.6889651644997974,0.04769580943651808,-0.05622364787244999,0.27885211282166333,-0.09590503898430403,0.47246748607167205,-0.8082534379510249,0.08832853259628456,-0.11209132827522983,0.33513602030876244,-0.27112497886369186,0.3579012742374554,-1.446535541479206,0.06972752242078772,-0.07170670993743827,0.11549936128601057,-0.28634985761501786,2.036798322427009,-1.465299498806402,0.058250953664120364,-0.07461919731242768,0.3496055913249837,-0.26774431749210936,0.37132854265724186,-0.36679480244271634,0.05873350374597691,-0.06399599851351753,0.04874954055248637,-0.1835086190245155,0.3072554460183357,-0.2764021091302123,0.056069503201595594,-0.047071938527007195,0.10297336484716507,-0.10272050895953722,1.0
61,0.20073778772856843,-0.227240345520002,0.03345842615116923,-0.01846481563544597,0.07127222754120194,-0.03652693500188292,0.6396165664064195,-0.8363647018035294,0.030571427009304514,-0.01765032701509764,0.13823852001693593,-0.09752910412668386,1.0614561291363422,-2.544868365552097,0.0508166803831665,-0.038283263239058674,0.26378215913230224,-0.2536105660579884,0.5221765995107555,-0.34127909095554354,0.012775996800666434,-0.06645902431613115,0.2267407275789327,-0.03206888624585247,1.6273993456484799,0.0,0.043805619176043975,-0.03158976261707713,0.22550764232415887,-0.028220172205188798,0.6838016548571689,-1.636533016567681,0.04517680870557325,-0.020009733811534147,0.20503568392527394,-0.14593114258066311,1.5280442630400743,-0.2681098871254267,0.013837697810441585,-0.034281799827327264,0.22618010094233343,-0.048405205014305674,0.43279605249836767,-0.34037130179939407,0.02273207649062542,-0.047890001991159836,0.12865458739006397,-0.05316431911237507,0.5042135976071334,-0.4155383404501362,0.02966388279110091,-0.05282251779162958,0.1521023104615969,-0.05783976917933553,0.8326255629614918,-0.18965907350087557,0.04180159055214269,-0.06042296423510962,0.17888718795452468,-0.04822172984199452,0.4963639007709362,-0.35075813916021625,0.041415743964292706,-0.05072693408653356,0.11113563601621518,-0.058728923677321576,0.35725513393055885,-0.5197577110938514,0.043635097472941614,-0.05920651778772856,0.1376173247965244,-0.056328842259635026,1.0
62,0.7330516762002138,-1.466103352400427,0.04006447009073555,0.0,0.22829413363138495,-0.15994879329665013,0.4307395646852552,-1.112059921755745,0.007840945449391179,-0.009383341031328207,0.1598695988076495,-0.062330442684825904,0.25970186922233524,-0.591705142497135,0.00685105920836826,-0.020417908255550676,0.04759018475723842,-0.09180688734429543,0.5234901576833213,-1.2946963460502323,0.018912162612908012,-0.004713605266720544,0.18447352116304244,-0.06880146933709941,1.0715416738706147,-0.9633913111465959,0.06833003370572027,-0.023869521127540816,0.23552489598918358,-0.09105177650827184,0.6032731941187361,-0.9982699463594773,0.0,-0.018248674241398866,0.1301379886870599,-0.14451579924932123,0.20755453083578138,-1.7472644591424749,0.014554742695789297,-0.019766028137281788,0.05461054093168227,-0.2260302039319882,2.841475277653328,-0.972387021715174,0.016761940859216645,-0.016492310859977266,0.386425500818057,-0.16275362576079316,0.4182477916950004,-2.2739976539858153,0.052098891809485015,-0.011336804681682744,0.08250301084752443,-0.43626484228660234,0.39645010698313665,-1.1780504110806698,0.03861064637707273,-0.05595788895196338,0.12880822955673915,-0.27503024249985564,2.952908625095723,-1.3397186016063791,0.018787613734400382,-0.005113710381813019,0.3864376916811192,-0.2195456847579016,2.8229757277979823,-1.425593375705848,0.01978747948202539,-0.007580610942829802,0.3747926689764719,-0.2317389301570639,1.0
63,0.3610882594382202,-0.011466404066989067,0.07258014264797286,-0.022248860194485964,0.2473057112157157,-0.011645064120339221,0.5128183828070265,-0.34268591861977443,0.023154929182329753,-0.03694507607046159,0.053932649986378534,-0.13705411237510123,0.6738414891389174,-0.497261233098104,0.008269497630482958,-0.05476786689428377,0.028421815269303763,-0.22314634673290926,0.4359365038414872,-0.48428155418019414,0.0874613275085464,-0.01996267143788466,0.21172671007334753,-0.23820198907932427,0.6892199805347654,-0.292226772588925,0.014035557553807199,-0.00043043340413728703,0.07028050563301569,-0.10431309894467466,0.7233790337663948,-0.34650491149859197,0.01814438936969881,-0.044289108651369175,0.03746878605451892,-0.1794220134523376,1.0517521871970326,-0.46243693405771275,0.01042151800076982,-0.011592013142267543,0.16503266973067937,-0.055991094126637275,3.32206463838288,-1.2884672169723868,0.020685538619455546,-0.04051374522416984,0.3154998633923725,-0.31763120488326935,3.460569107040846,-1.4503720983455195,0.025686004729019163,-0.045663062423097034,0.32359959334628685,-0.3627035739409227,3.3786379197358234,-1.2919421731920377,0.01916876490638078,-0.03487916766705401,0.3302272118969619,-0.3006061307980031,0.709819542189849,-0.6206849533948468,0.05849860155761466,-0.04459932830438637,0.27868145191463495,0.0,0.37831545803675815,-0.4959240042836178,0.04094095335821163,-0.04461796604178914,0.12462397388848678,-0.0976974074232381,1.0
64,0.874496220109803,-3.1828010739614236,0.05661808640333882,-0.07838685249967413,0.37532236400154356,-0.3302287262954605,0.6269721531300669,-2.481334859441871,0.0660771771083895,-0.042002720710101804,0.3804639277872458,-0.21896324003657147,0.46175418814375646,-1.0244079030609696,0.07438121474888787,-0.0031124972956380337,0.3053843745386778,-0.13784174919877706,0.951417330014432,-2.75025502957336,0.06011794950675653,-0.058321215275835836,0.39364512345603686,-0.27136838455512713,0.8317754059470381,-1.1815390593525685,0.05134361996099912,-0.04375599454065138,0.3158988616203606,-0.05882648075459074,0.6672484222972757,-2.4396648439677726,0.07255564946060514,-0.025695200774864174,0.29486903062701264,-0.2208589205034079,3.5279299738317507,-1.5380299096353587,0.055780156956923954,-0.06360590693172308,0.2976851175996271,-0.5027999367585192,0.7903885208076156,-1.766863068640065,0.0012061411122281096,-0.019591238751487133,0.2627224514040644,-0.10142070106756282,0.7406428113688328,-0.977822657222535,0.007664694720420556,-0.020727733538046855,0.3218174796233116,0.0,0.8923608009421762,-2.6605342848178206,0.027355025400471356,-0.04522601141556659,0.5455014729868793,-0.07698071582431404,2.306820507666848,-1.4259163023381574,0.0524771480813635,-0.03558563464699571,0.2029865086092918,-0.3299586765079786,0.24854492924597552,-0.3735722979971581,0.08901079708742227,-0.0693534882623232,0.1599150078805902,-0.17950207845022992,1.0
65,0.3106372866289242,-0.2821910252883264,0.06729797040126645,-0.11850289743964054,0.0,-0.3639435843617105,0.35331550485241614,-0.2867748673320192,0.05798478817745745,-0.05722543989340874,0.0,-0.23293921618114008,0.6647308172341202,-0.3954988404821376,0.05712369629711783,-0.0430001172812674,0.14760985601705962,-0.14339531603533578,0.07976187414630426,-0.16901090812088476,0.017877884281300882,-0.030492438060415572,0.029932645358224597,-0.07479683960562877,0.473337434177852,-1.5311442407513793,0.05683184795473645,-0.07748147742922112,0.3327018702036854,-0.06744895551843111,0.4096024242710733,-0.3463576764518459,0.055111360320562686,-0.04825646318774443,0.045884008524074926,-0.1886848641932579,2.228949560276336,-0.18336090369215408,0.021738071619828186,-0.06661777673579017,0.25225270641917974,-0.1968045445847503,0.8434030635715902,-0.23162975461233462,0.13859178712734788,-0.12403876661628033,0.2769528128336376,-0.2271493594491587,0.20409923027158383,-0.17205052806775734,0.08360442765218146,-0.08493969034672737,0.016957616961600586,-0.2159785020946348,0.21289934737291033,-0.28932752531251593,0.0834260034514019,-0.08724022576085459,0.019104313378332627,-0.23489741824150437,0.1452891850206544,-0.2726999420507642,0.08037799334331461,-0.0872667001891995,0.047205429161042756,-0.2278747072274275,0.19266074602570726,-0.228029700189878,0.0829592902662153,-0.08564847797124034,0.05006019642740345,-0.22510816803956793,1.0
66,0.17996309541229388,-0.5749203028115024,0.08741024196464614,-0.06780354675476036,0.22818023985897595,-0.2703390721474732,0.04843580473899778,-1.654307252335938,0.10255251306266921,0.0,0.2771581373097257,-0.22727154796346238,2.9719382023502674,-0.6741864445639962,0.07475731551206327,-0.04383889764075066,0.2585651852899487,-0.3017512669423613,0.4828189034225715,-0.776405241020793,0.09240989344053802,-0.03301879175728345,0.2565257585645017,-0.3044885443937989,0.32945872676146154,-0.6809047069060048,0.14613876605324577,-0.10934473349586274,0.2801625953303069,-0.23347632893871711,0.5888678772445868,-1.9891138678923996,0.07539496164241424,-0.1238056690806259,0.27039438968920665,-0.25654622691728557,1.2788818268732016,-0.8562150587336593,0.0532427297981361,-0.009951171619341281,0.21743437963544043,-0.12653384734799672,0.06557468090063223,-2.0576858867454058,0.10858290800395964,-0.1359311458934701,0.2525676496905197,-0.2992735867865858,0.8192524775110441,-0.7345764618366379,0.09372089177731091,-0.11664586723082809,0.12307207687465105,-0.29858922784546227,0.6815486837326621,-0.48966344368901116,0.0871182238757845,-0.08130485050520135,0.1030451832506099,-0.21029213227730192,0.8501297073422851,-1.2755032034585336,0.07116684884367941,-0.07715242066981343,0.13883206437368723,-0.2894765301548144,0.32674812376974444,-0.7777709028453368,0.09017375441061912,-0.019956426724197368,0.26808228719592425,-0.1628965139742402,1.0
67,0.29846339572197017,-0.14923169786098509,0.02450082708722201,-0.02792946815814107,0.0767653760963109,-0.04053096729325034,0.3375450544171149,-0.7138702727235011,0.02919022656452161,-0.033042853782944595,0.05226762212755515,-0.16573757372709133,0.3890677644842794,-0.7781355289685594,0.03431128363565675,-0.04402284338541908,0.03664814650903131,-0.21500304669858367,0.1484520695563269,-0.06273564428587913,0.0,-0.019142338715035512,0.12189385335464631,-0.0007461676805772255,0.4651512476856546,-0.42805649598870293,0.00860644849070863,-0.025079756576184997,0.08726981362945019,-0.05581681809691175,0.3499618742920453,-0.6999237485840903,0.030605574398710617,-0.036859458292051686,0.04533468264191798,-0.1809102619118772,0.2184794526144089,-0.7285712762893783,0.022705888470898827,-0.029572017560169805,0.07636862136662081,-0.1245280650222812,0.9817010152193971,-0.536586786043563,0.02348871632917582,-0.0271363002014689,0.19872186224307553,-0.07421439534559227,0.35682743132500383,-1.1947689145258993,0.013441172197242168,-0.03602859407268072,0.21778776457779997,-0.04938189768051093,0.16383317237963774,-0.14969470870483848,0.0439934290005331,-0.03659663577870473,0.00024127881809943297,-0.1511215096652378,0.14117281035049414,-0.07936889855023924,0.02245595290629626,-0.03159456810313799,0.02868369408673488,-0.07477266279298717,0.08564755930158097,-0.43264030889520294,0.0163882435886038,-0.030894542892009033,0.00011126843497349936,-0.13330510116329983,1.0
68,1.1265552158420584,-0.9575525575891305,0.14188852694770326,-0.12426970355893613,0.323818576631661,-0.3079095729630804,2.3232336860650626,-0.39721253560924935,0.11613937859108187,-0.07431433529061046,0.356164886028149,-0.3055328005559911,1.543176763779266,-1.6690444973223426,0.0936549683899603,-0.08780686060569376,0.24623170636515307,-0.37571913113121713,0.49367375194839985,-0.26923525246933555,0.12023469426214706,-0.09133789281263724,0.184054255318517,-0.23396409087919456,0.4344088049391941,-1.159688264622755,0.08845206491302948,-0.04139240061803523,0.25566942738271536,-0.1534667836273686,1.9167230371902935,-0.8889258180594823,0.10375787167868272,-0.06916099437525744,0.30152219718410983,-0.3360676495349574,0.8218364147674276,-2.5687785659678766,0.04310394015267985,-0.03168526225315063,0.2738103374529246,-0.3057631668317371,0.9129616301028474,-1.5192180006189377,0.08507205865588338,-0.08532777140133095,0.15745026591797184,-0.3213603948348055,0.20130817012512803,-0.8059928641260881,0.022908678043238984,-0.0696218060971035,0.02808607428705573,-0.4298989763455172,0.03435511343242981,-0.7876458295331394,0.01474537906733836,-0.07376365025680903,0.03827408769404245,-0.3764480469530469,8.326672684688674e-17,-1.5932196673367605,0.0,-0.07416610152039993,0.24141209520238838,-0.36788670996657147,1.1370713932994847,-0.6112131659260736,0.12286429076314465,-0.09744199160579403,0.2492675123755368,-0.29457655474727673,1.0
69,4.019720132780953,-0.9829444879704416,0.0572478056639788,-0.057986552962042054,0.5327672415918492,-0.23894142995783585,0.5696945720040492,-0.7283076596503751,0.053229340686650556,-0.020627871559512373,0.1451381802388344,-0.13165681641596927,0.951482641236239,-0.32963978968589647,0.07241042057091557,-0.04857105648566648,0.06659200521423386,-0.19375247291656642,1.7077591217646066,-1.5778900197688044,0.09545007298800878,-0.08680606784059791,0.31681874534220966,-0.27112954853928495,0.2746700607514764,-0.16982276172477107,0.022302070365645132,-0.021947630231443527,0.07875942816241144,-0.07370023293716554,0.6581453357388123,-0.6625631093964013,0.037304240039813336,-0.03270737265527568,0.10823203812783605,-0.16703789399360078,0.832113698408106,-0.5604124050222868,0.03150122462902605,-0.06878109039068953,0.09963502994822748,-0.22810503238845148,0.4953339403548176,-0.7036510113890021,0.014022795205474559,-0.04517435614756801,0.09728100594463113,-0.2122571810678769,0.440401204707078,-1.1527430145081192,0.10346908602135074,-0.09805198637338647,0.11230278881057248,-0.18142814509812133,0.8599724329146203,-0.3559520778140148,0.15471041295537213,-0.07691648466853034,0.12780798267483306,-0.18849950886092817,0.6082449404160271,-0.27663568033423225,0.10552999537356299,-0.07054162662870568,0.04564078398790089,-0.2440949484090019,0.6478659139671978,-0.35668939960967927,0.07773729494247372,-0.06258985468034067,0.047300587578389175,-0.2177817699603977,1.0
70,0.4798915094331989,-2.479899245493186,0.01384596775086469,-0.009827235943106027,0.08652267524729529,-0.3247592863573372,0.7731358193102092,-0.5614699463737204,0.016007371219577987,-0.009797544801625424,0.12178449699797578,-0.08936165610443786,0.6019957516813061,-0.4612268124168353,0.014761303757831079,-0.006748756777154252,0.1150766103005707,-0.038714083191679016,0.10613015020328835,-1.1501189007273518,0.02942569929779648,-0.031053809425081624,0.05472291834700738,-0.1884904233178335,0.1320983993336316,-1.9543542891527768,0.014857085020190786,-0.014959137279330084,0.029068214037826334,-0.28599345199179904,0.6325212322187121,-0.32562569416799614,0.007930900521661233,-0.00914637484370584,0.11804490190696426,-0.025210717341433098,0.6104247184090109,-1.2573277233530793,0.00025562050745919773,-0.021110873456541224,0.0,-0.33035789132791504,0.25224623042718697,-2.0420108343144525,0.006164640517944409,-0.03269415929489833,0.03537493851963458,-0.3187034775791967,1.927705971967164,-0.3477956190136255,0.03193372755863044,-0.039646168579949875,0.2741746025190951,-0.09643584979817288,0.736349047450036,-2.134401664944483,0.038381906478069744,-0.04945000436682531,0.07809571777316826,-0.4420023238532843,0.5802155527808034,-0.30931316500961015,0.012171804614095838,-0.014374473329421267,0.035102940279888695,-0.09284173679320734,1.0442630009462572,-0.5867834938327501,0.008530349891879285,-0.007715602061313054,0.14645707978278455,-0.08603121138848568,1.0
71,0.5208819946331833,-0.38915330309600216,0.12978923807943876,-0.05020927705935857,0.09748935324904867,-0.22198874175547717,0.5443148363829782,-0.40496336744702,0.10351951841925733,-0.0972438298798789,0.26201202426143877,-0.07138538440939834,0.40164424281176525,-0.40901635663036595,0.061262440556696746,-0.08302771954746363,0.0,-0.25952645511290956,0.2925919866988753,-0.5065576920491173,0.14074335383328718,-0.11494372067784273,0.33548325063679374,-0.05628723076017694,0.46955638266881794,-0.4528753928679762,0.0315875129420527,-0.05342833964228755,0.08302578587127873,-0.1384649775481654,0.34308463606867307,-0.3227963139609996,0.08895138849057993,-0.09980845355512756,0.13257157469602035,-0.12702888138235588,1.2087755894886174,-0.41804668951619534,0.06773841412212672,-0.053295584416520825,0.2674974330914801,-0.10943154630714164,0.22129508965669076,-0.9305570641674943,0.03519569412268697,-0.06372177043151667,0.0,-0.36415453921740437,1.1474112189130983,-1.2222680219559374,0.016854962775364024,-0.022862779932533828,0.19095914251182994,-0.16023630973662595,0.9506292540733288,-1.8361629568124924,0.035624748378339705,-0.029845373559325317,0.12102182685794827,-0.2649250091555789,1.2050771991726368,-0.3218190444608532,0.09268674229312557,-0.10226895176920865,0.3132367810974592,-0.11339788113620208,0.17583907194640006,-0.4547764957376388,0.08142320399198244,-0.0873685117174547,0.11286462746408116,-0.12867967149450407,1.0
72,0.9117910290035025,-0.6308084297736988,0.07985857585459674,-0.12017895803020504,0.12548983935878022,-0.31341729704782795,0.1779700255338937,-0.18936304531890186,0.047552488540222315,-0.07289041185307696,0.12359672979961966,-0.08679016351465649,0.4590024431694094,-0.21283133898589435,0.06852641142993318,-0.07044180030789651,0.2459820793331179,-0.007592424011907795,0.19624469940589584,-0.6277208429542646,0.04660119873397395,-0.08690781605252468,0.1025093230118308,-0.15525532382155238,0.2574081230555252,-2.899001412490656,0.12083500627197469,-0.11299884938992782,0.469814007036977,-0.13915376342634345,0.2434531670510377,-0.20048778387923072,0.0579463260386644,-0.07301707122016465,0.1486388057446253,-0.055819230264041286,3.4059527330797947,-0.49707070087455363,0.02142928191422383,-0.05689717242994208,0.603353365316142,-0.05846650676697479,0.8649140334655457,-2.562740674671342,0.07132325352370272,-0.1398442562442584,0.20147285381212804,-0.419280857883528,0.059230636867384945,-2.2274671265472357,0.09174258594097717,-0.09713045672357296,0.3393177131556578,-0.03445430258290938,0.8605305943294693,-0.31650893308971517,0.030143022083405024,-0.08407371405595544,0.24707072872888014,-0.09268374086121078,0.8398865152102657,-0.3636691817198051,0.05463395360020923,-0.10550692085200158,0.15893835249270138,-0.22027133989290695,0.46539645598465973,-0.5172996903143806,0.01953885998547661,-0.09030177411946848,0.10694785974283805,-0.20340617343746878,1.0
73,0.8646129286282622,-0.334033851235866,0.06165115090216611,-0.03257294741065589,0.1503133691916847,-0.04814709071823542,0.07903085519336812,-0.03667009868024122,0.029470294998275415,-0.02571823469089292,0.04948860226234328,-0.019912054176104782,0.2650748020506225,-0.24497500323543855,0.035582088838906345,-0.02868903201282373,0.039287698862974396,-0.07219320381970948,0.6737766798585932,-0.14029805019529643,0.008226173290690919,-0.05290462211076863,0.09791465410624489,-0.0807014249367013,0.745694780595725,-0.36225858086268237,0.02638286039952087,-0.057566638410545434,0.13471948388880106,-0.09485161872793901,0.2210526907104819,-0.27323188203004617,0.03376978803361577,-0.026882969784957925,0.041375797992319246,-0.06686559196777292,0.31509163626145775,-0.5449364192079672,0.029420933005405214,-0.03072913341436989,0.10313709603237775,-0.0717210359935535,0.4673081500176333,-0.18703580669475467,0.028844216327441052,-0.035504160657349015,0.07528127033846865,-0.06921741448116925,0.2272658023318833,-0.2109361310310726,0.050916963826034056,-0.054157867681248695,0.10003733367398493,-0.06344202696742574,0.39183411184244127,-0.4710886509627186,0.0976567324040784,-0.05467338049733751,0.13415763576193623,-0.12683433871840058,0.36796039595415897,-0.1703690633006054,0.0357884344376638,-0.03148532035051177,0.11396910513152894,-0.02104212742674283,0.0548344142867902,-0.3100472787262471,0.03120295760136682,-0.027435835692065577,0.042893183924333445,-0.05057745127270735,1.0
74,0.8940292082419281,-0.184783114101575,0.12527660567871807,-0.05104132563731767,0.1537348521863623,-0.16812725159892294,0.3375023394106074,-0.9370655742704495,0.12561586645125872,-0.056371743256862145,0.13443407308777555,-0.15499358788674195,0.4717229570785789,-0.681380270788704,0.06676834206305193,-0.05261490606567604,0.08863940763242578,-0.17525485496928467,1.254076705251776,-1.2907001257435011,0.06869915772991386,-0.09911997236617531,0.15657894727245447,-0.48473842367078346,0.3762851708158784,-0.9264923637800587,0.06535550706959159,-0.08105257592846632,0.09692293790885642,-0.24039709583866364,0.7283946588067394,-0.6945662861164659,0.07167539251469124,-0.058370456993242115,0.11806558925797805,-0.1725301207125896,0.622427238041698,-1.2721056777522057,0.09938088636546116,-0.08304128575117642,0.2549566209524813,-0.2666417804390979,0.4133436069093945,-3.306879979291966,0.10087378143574374,-0.09278252311663909,0.18396232967650872,-0.5644523358566155,0.7751722788450808,-1.3594324407175538,0.07771803528249377,-0.11793562908821215,0.217926130612908,-0.3726384993374753,1.3257175724293986,-0.12454204783933556,0.1357446444269692,-0.11493250896262822,0.23717595679333098,-0.1413125022460987,0.4223297863857497,-0.745123977959413,0.10101481076888918,-0.09671452763701988,0.15322776419851714,-0.14662622556328264,1.2228825584742753,-0.4903233783407739,0.10240178962408986,-0.057367410566951604,0.272339681378576,-0.09406668356834424,1.0
75,2.5728536300420997,-0.4547231381211494,0.013534027347377187,-0.016026731091459467,0.3642888215318585,-0.038298978121067195,0.6192881920058779,-2.6169330134241076,0.03822779170456203,-0.03131924277249498,0.06251665161074882,-0.40041253076785766,0.5225736023344298,-1.703132848306217,0.02094186418023619,-0.0073623519366252665,0.08020709906925239,-0.26610762596406645,0.5216385281973648,-0.21360110159769952,0.04507706154346652,-0.03242637951595914,0.0,-0.26862162949963453,0.5717130831989395,-1.1230537142471977,0.02136013854658489,-0.010195069681246532,0.10486012456306776,-0.1678897636173403,0.3856332772534643,-1.7027637220693808,0.023172935003289152,-0.008867474588665214,0.05733990633709973,-0.2748152923688194,1.8897865075230993,-0.9128127271805366,0.02265901751582866,-0.012608878215214947,0.27150815136611567,-0.18076865351727395,2.0331535307604605,0.0,0.00040789304586930086,-0.010322978967501117,0.2760116879104491,0.0,1.460193669478511,0.0,0.0,-0.017877983692167754,0.23496679038001927,0.0,2.0475503029422404,0.0,0.0,-0.011244397623844882,0.2838457834912261,0.0,1.8522721449391812,-0.4542127808399214,0.06935579585379423,-0.012990856643398718,0.2654949348794289,-0.2192826747118047,0.6585897193855225,-3.1363073439432627,0.04063964498103101,-0.013201299639137215,0.11548135124380537,-0.48856896356966595,1.0
76,0.7173486687093099,-0.22528350664937913,0.09047676235547797,-0.016227383283942326,0.28784895835999,-0.020511627108911468,0.6821232493996424,-0.24611288735839565,0.15616940494224418,-0.053985240702912524,0.44776404280605303,-0.09697523449178347,0.6079457435240129,-0.9867187607182135,0.1515313933550869,-0.06241339282539629,0.3722481270519923,-0.10604763472596623,4.533200251707507,-0.3469577387264242,0.08358112673582943,-0.017311281500744458,0.29866704596801197,-0.5271368602818705,4.1018117876835944,-0.483505140560907,0.09391453488368268,-0.01426756790299194,0.3406161781507685,-0.4605071940439641,0.7636914611053568,-1.0958505877934401,0.15859459427411696,-0.06025463584231733,0.4295322235101597,-0.1029845718134772,1.4707829993573394,-0.5803988494927707,0.02368830096486252,-0.019546846168396415,0.2718766216236711,-0.06596749901249488,0.08991972011253768,-1.730754371211932,0.004142101119611052,-0.03092490136968684,0.34907188228888897,0.0,0.7602304058760487,-1.644348772645046,0.0527573913032634,-0.07193373120338709,0.04553287434245401,-0.3994418209988695,1.88188536653539,-0.5999949661694111,0.0,-0.03618683110788723,0.2902587215250882,-0.17703830231123346,0.06052380926637968,-0.7989459832074024,0.01440894963150921,-0.019769178034139245,0.11681236325244931,-0.04217485233112839,0.5677943458132366,-0.04325197997618982,0.01049151837764506,-0.017225319372310366,0.099987569760071,-0.003362100065792073,1.0
77,1.451439399142718,-0.16495742526421897,0.09590390479282584,-0.09521328457438599,0.20911797834556034,-0.35835297459584325,0.31413785905906455,-1.5827649341724832,0.03644153388415933,-0.05551254576397788,0.0,-0.4225604897147668,0.22973916895242674,-0.45639528885951475,0.02543763476605121,-0.04819234703125656,0.0,-0.22509753425624876,0.14563331687824932,-2.318469135032378,0.0,-0.0421720486734484,0.16634661163166004,-0.24521815175446987,0.2111776503595333,-0.3225503193893313,0.0,-0.03019323499580817,0.0765992767905922,-0.1095409392033756,0.2817205853166628,-1.1011777465373844,0.023531973882625346,-0.05307529544265374,0.0,-0.3333027950581673,2.2423614189462016,-0.2990023077831338,0.04713290988851848,-0.03731614753489926,0.44236114373415136,-0.03792982318980337,2.1955524144325005,-0.7048297785948998,0.0,-0.04069892032742131,0.5078887941241597,-0.005514389830343414,2.4088927949574193,-2.041671381410065,0.02786415866847325,-0.08544438495869272,0.5549301063640044,-0.2558038666598996,1.5157082037047127,-0.4337629369572926,0.04038860341376832,-0.06778378570166513,0.17363317097996367,-0.25429597108547747,1.2742836715166943,-0.5380131694100599,0.048892574372781605,-0.07487614228850914,0.1469765145742285,-0.2551281569045054,1.373304035688429,-0.6107838808886445,0.046723169048535795,-0.07390888507298846,0.16701438749499503,-0.2537194648669774,1.0
78,0.5921316313604806,-0.16174203217335592,0.023449333570493003,-0.024035979310104538,0.08017620099966472,-0.07845361596096506,0.6649900270562344,-1.3951079457470117,0.08677642630294657,-0.1447923222995008,0.379266603853359,-0.30290256017024625,2.8092898921910745,-1.173024133051017,0.04175655802291245,-0.14197482696450026,0.32251520271359424,-0.5044075598919837,5.3187087959204336,-0.3760227928814728,0.04676686696040916,-0.08634495314299281,0.44736904334043365,-0.41458475396018557,0.5646720740886572,-0.2814461938625726,0.01369048365781117,-0.019716130569190693,0.0864244840908654,-0.06064700412483881,4.125855087562505,0.0,0.1028499070413309,-0.14074656685391554,0.4294581004400664,-0.435889679684743,1.4415759665069827,-1.660960583460883,0.0233884452086206,-0.05704029506937758,0.09306203868858881,-0.43339528013892864,1.9539583432134346,-1.1721263514036733,0.013749113550163505,-0.01673875865189922,0.25178316554854724,-0.18495897910828324,0.0,0.0,0.0,0.0,0.0,0.0,2.171700637969404,-0.0417719493461608,0.0,-0.009053254145505618,0.29977236122871115,-0.021994038637005997,1.5879129003933932,-0.5314741199181636,0.05747599756057503,-0.1049197750415242,0.27997874721789634,-0.30217000887480383,1.8666925241465955,0.0,0.0025294843825960367,-0.013647305389605735,0.26527089183576646,0.0,1.0
79,1.2803336044164135,-0.5834888237773185,0.04005205363397625,-0.09660993506802171,0.23183083625887518,-0.24237055412297445,1.0577354743051368,-0.26403516343500266,0.03892392608400794,-0.07763384842120256,0.03049283303673575,-0.31215551224439886,0.8164922819592833,-0.3840279822257022,0.02993948853244774,-0.07526298191721986,0.0,-0.3202279849129307,0.15107174812405227,-0.5325057739665411,0.00559432444894592,-0.03470978245491951,0.15923875425342504,-0.0761504128352043,0.8578766803537812,-0.40889616429389664,0.04509016212778694,-0.07181140104581568,0.004761495155068185,-0.31457934778954755,0.9149544959690176,-0.35934898134001636,0.03517142490273384,-0.07618175812281688,0.0036180419353463167,-0.32311202796981964,0.713511499745951,-0.3588770766558418,0.024516070427039405,-0.07514573074737602,0.03246548882832212,-0.3248802237407423,0.7527234325277454,-0.0841914777768753,0.06062171201272233,-0.005903456695456111,0.26881576487417086,-0.028812207303286708,1.0016753105147014,-0.2877264607730077,0.014403569291358248,-0.0032503384167084093,0.11612826032374057,-0.08429259811259515,1.1418718941557646,-2.7512944682485925,0.047194001109240574,-0.008266119169448832,0.17030635104857106,-0.48161729045863094,0.6295688906648098,-0.4151807427327491,0.035701457920373325,-0.09544357221152228,0.081550756802658,-0.24457743075914046,2.7750347287486936,-1.8937128790270443,0.023945676553947248,-0.0062457021507512644,0.36786957232190043,-0.28828179327795955,1.0
80,0.043190221135136625,-0.3387647013082301,0.03513087857432945,-0.0220236421456787,0.062295219316796546,-0.06422398061071488,0.057999101802498634,-0.2569970737277094,0.0235944876807698,-0.014126898757261322,0.015740747839160962,-0.07689433887819772,0.037150664573826986,-0.4600982825070894,0.016571817127394806,-0.02362042199263123,0.011470627565059122,-0.10686499444304273,0.6327416933712635,-0.2739380304984097,0.007491621063559162,-0.002671209681790021,0.10190391367737472,-0.03402479592935681,1.306307429511803,-0.44434562656476917,0.02946750635268308,-0.0286432275698274,0.22744514454218456,-0.03527861889937878,0.07935883490303852,-0.45419590597176895,0.01853671478888652,-0.022397500315433763,0.0,-0.09562413708001685,0.30084137653822735,-0.3971820474939718,0.026190706043599042,-0.024030409027883726,0.022618540072788518,-0.12880274915835033,1.2907374993841643,-0.10456326076595779,0.019338252890879926,-0.03970964404432087,0.2629605326057572,-0.04561033012934598,1.357644760875481,-0.22230142196763542,0.02742326946858971,-0.03378461995193793,0.16438182927871856,-0.09534789398617219,0.47698214768021513,-0.232623079420671,0.02614751771917903,-0.02201248563852365,0.0524825644207384,-0.09990946523798863,0.7810825084887572,-0.2237528502328882,0.022007635378753748,-0.020720759365599847,0.07172533442931173,-0.10186688347595454,1.0281595908932695,-0.24647134903060863,0.02637602727907659,-0.0186037837681972,0.11490084021460928,-0.09765340729563121,1.0
81,2.061979970803632,-0.3265087273044667,0.05760467373630879,-0.0626556198711519,0.18842221987338015,-0.19002701537561623,1.8475915191588368,-1.8337634137925054,0.04440285956158879,-0.03641052907515313,0.09219257200968656,-0.46703201778892295,1.9161760586578191,-2.1724209768434615,0.025324766493934114,-0.025924777094410878,0.10527881367714143,-0.44401962808786155,3.0898174841276096,-0.7568433602969554,0.02789589451781288,-0.023353262988861867,0.33396564534581186,-0.21524415235417543,0.34451358576126,-0.6085641108481543,0.0,-0.028722283448723684,0.17973082865669987,-0.057299439248058914,1.4739473344706577,-2.375397707804115,0.03368808369701448,-0.029499810627059447,0.09649344989456954,-0.4542267378468436,2.5106863370896684,-1.2553431685448344,0.03783225370277282,-0.04810359636383005,0.12778312293574834,-0.4461481495830337,1.4294607127579442,-0.6956265174319347,0.032881659181598466,-0.09807459974311539,0.20894640122519753,-0.2998443611722559,0.7930709009780881,-1.736059775214243,0.031013022685765446,-0.08461237976156366,0.1070376793611173,-0.40387838639390905,0.0,-3.585395091484376,0.03454092858438479,-0.0016013141683039467,0.05339506453908771,-0.5066066234584007,1.4403524471097326,-1.2546680656049969,0.07542467119889035,-0.08903108110624275,0.28050127004868664,-0.22805169341922304,1.2427026497234375,-1.324976800037533,0.06839170488263768,-0.09937284036298552,0.28822826677006486,-0.21480823641271288,1.0
82,0.454929593264038,-0.09136599413179014,0.02229334837093605,-0.007598532143285319,0.02093279002402837,-0.08141224027660182,0.22505017322343246,-0.6337480004781793,0.08449609573616262,-0.030604962776008382,0.2933955248574162,-0.004669397074828829,0.4800300575647859,-0.5776056163516721,0.07147003138150969,-0.039075575007447544,0.2522484301801976,-0.2108441730064528,0.22812036251039702,-0.36666182222509114,0.046198076710165875,0.0,0.07318529678051722,-0.27162542645983584,0.33140458790314326,-0.44374700179346044,0.023618568974628884,-0.01569387742566375,0.0713146278170751,-0.0769598678363802,0.4739604116124597,-0.5037555511219567,0.0748131864097919,-0.03371135781341081,0.24298797236607078,-0.0468228109634804,0.16647277209703445,-0.056277833558924156,0.009971509899260322,-0.011706276928071913,0.015163919416871563,-0.03586428848137313,0.19856773585216256,-0.19549811553141974,0.014385571876477654,-0.003648169117496103,0.04030401763431957,-0.04021408055193321,0.18630478447955026,-0.06237583365075219,0.016854686608284708,-0.004424874957367542,0.04172334646998738,-0.030201928528967026,0.45351217030262575,-0.16273993875433618,0.023238861832090618,-0.008994823622930276,0.07861898721250551,-0.04862416540100134,0.0844267336525828,-0.08948767348743658,0.11268660026508281,-0.030027814872559677,0.4593420954166455,0.0,0.2993420771456756,-0.7434746396463117,0.07117780411140368,-0.04847870368084012,0.19770941206299936,-0.026635393063840607,1.0
