,da0_area_max,da0_area_min,da0_slope_max,da0_slope_min,da0_peak_max,da0_peak_min,da1_area_max,da1_area_min,da1_slope_max,da1_slope_min,da1_peak_max,da1_peak_min,da2_area_max,da2_area_min,da2_slope_max,da2_slope_min,da2_peak_max,da2_peak_min,da3_area_max,da3_area_min,da3_slope_max,da3_slope_min,da3_peak_max,da3_peak_min,da4_area_max,da4_area_min,da4_slope_max,da4_slope_min,da4_peak_max,da4_peak_min,da5_area_max,da5_area_min,da5_slope_max,da5_slope_min,da5_peak_max,da5_peak_min,da6_area_max,da6_area_min,da6_slope_max,da6_slope_min,da6_peak_max,da6_peak_min,da7_area_max,da7_area_min,da7_slope_max,da7_slope_min,da7_peak_max,da7_peak_min,da8_area_max,da8_area_min,da8_slope_max,da8_slope_min,da8_peak_max,da8_peak_min,da9_area_max,da9_area_min,da9_slope_max,da9_slope_min,da9_peak_max,da9_peak_min,da10_area_max,da10_area_min,da10_slope_max,da10_slope_min,da10_peak_max,da10_peak_min,da11_area_max,da11_area_min,da11_slope_max,da11_slope_min,da11_peak_max,da11_peak_min,target
0,0.571042883,-0.399624556,0.027101772,-0.004849688,0.146932722,-0.076538989,0.240010528,-0.523056156,0.058067107,-0.093641053,0.264247626,0,1.852187439,-0.498785706,0.06158493,-0.180933825,0.291275739,-0.318239092,0.135087743,-3.703719528,0.065845684,-0.044588246,0.429120099,-0.223641201,0.430241119,-0.273624991,0.029205078,-0.00073593,0.118188518,-0.102492278,0.775590297,-0.221413936,0.05827879,-0.137950933,0.244557037,-0.139216488,0.423530265,-0.542063445,0,-0.0084262,0.251404952,0,2.584128535,0,0.000183534,-0.017084382,0.33584196,0,2.244733095,0,0.007870357,-0.013361304,0.293136459,-0.003054507,3.294418445,-0.43679374,0.039326058,-0.001412849,0.054786622,-0.497435774,0.666997829,-2.429341285,0.032758959,-0.001887269,0.009004618,-0.467254924,1.944278967,-0.214330278,0,-0.009718972,0.29929357,0,0
1,2.222403105,-0.369915808,0.039695564,-0.080710224,0.285046487,-0.111159337,0.834622113,-0.625940892,0.090588114,-0.109384603,0.117953343,-0.280187054,1.207583169,-0.415433343,0.03771153,-0.098781127,0.268042933,-0.108830035,0.331839782,-1.213684069,0.020832828,-0.009004465,0.16511051,-0.068491077,2.635086936,-0.615741696,0.060273738,-0.080323248,0.461591676,-0.138163317,0.02464092,-1.328306105,0.047892681,-0.104905126,0.401197602,-0.078405031,0.349987692,-0.508498989,0.029230074,-0.088815461,0,-0.346052131,0.93259918,-0.526940915,0.146898325,-0.063487941,0.174007051,-0.124714019,1.185306531,-0.889787718,0.104826776,-0.105430019,0.378203883,-0.103332901,0.762305676,-0.257219951,0.075341065,-0.102576856,0.289972978,-0.034846232,0.67336209,-0.38430002,0.059183275,-0.071084266,0.16331909,-0.117523996,0.139310684,-0.587026707,0.056357979,-0.060314787,0.09760043,-0.113482503,0
2,0.733808771,-0.181056345,0.030798976,-0.011149505,0.070426926,-0.103277134,0.275385402,-0.132797883,0.023626217,-0.012801216,0.061687247,-0.050876001,0.146816352,-0.170806913,0.024360217,-0.014773779,0.063772597,-0.03136488,0.243450042,-0.553826324,0.025045559,-0.012702104,0.051192885,-0.105231378,0.299072632,-0.442747056,0.03086515,-0.019103544,0.074351555,-0.07208915,0.235498694,-0.139166624,0.021886183,-0.013510176,0.063894341,-0.04072035,1.871319518,-1.663279055,0.044842733,-0.026981795,0.233357849,-0.303851994,0.644429628,-0.222695921,0.015030203,-0.012965302,0.115044601,-0.030977303,0.108753693,-0.112473377,0.014614829,-0.007251412,0.032890239,-0.035881102,3.154065729,-2.821720793,0.037583595,-0.100320783,0.399777073,-0.406254579,0.658933502,-0.110680007,0.022094203,-0.005726213,0.060370216,-0.112087387,0.273944532,-0.740844756,0.029270651,-0.007336893,0.087878258,-0.123493803,0
3,0.944605626,-0.547453477,0.139001745,-0.113120752,0.366265599,-0.140222948,0.324279695,-0.562635201,0.103507915,-0.064627267,0.453291957,0,0.385082487,-1.954225974,0.079709468,-0.033283927,0.445720078,-0.016265587,0.3991705,-0.580608239,0.114452512,-0.079441859,0.401558864,0,0.656864109,-1.453163338,0.066908559,-0.054370317,0.405724087,0,0.406954385,-0.381952069,0.093630316,-0.051616324,0.446505455,0,0.3205804,-1.073507637,0.039831329,-0.039289622,0,-0.383280587,0.045628471,-2.16316688,0.247317758,-0.184925993,0.527127879,0,0.131883803,-0.309843363,0.201616844,-0.158770898,0.330275463,-0.055921179,0.236538783,-0.266651164,0.137436412,-0.125997107,0.330669502,-0.044621977,0.08953764,-0.254271732,0.123947818,-0.101835994,0.375409228,0,0.575548858,-0.276603471,0.022423844,-0.004670887,0.102778104,-0.068795634,0
4,0.450034709,-0.173495524,0.086579295,-0.055485025,0.332853602,0,0.39280826,-0.178460741,0.027651233,-0.014666908,0.053195747,-0.0986013,0.388708811,-0.081225124,0.025529978,-0.016893208,0.082311424,-0.056413426,0.180806469,-2.993939043,0.075214986,-0.046200045,0.194789176,-0.408017048,1.666043286,-0.237338174,0.030500583,-0.058250812,0.235855555,-0.098480633,0.500430993,-0.174311984,0.028366118,-0.016312507,0.08518882,-0.07838626,2.297207471,-2.165547855,0.045609626,-0.017459127,0.327107963,-0.408293905,3.678477039,-0.556779131,0.013388877,-0.045337153,0.601141518,-0.053596451,0.725996003,-0.458554868,0.011768426,-0.008806018,0.154585402,-0.025707775,1.882566414,-0.204358211,0.009218766,-0.024748499,0.215898421,-0.11963441,1.334778908,-0.066400546,0.007216119,-0.025358111,0.271224007,-0.018842491,0.26120944,-0.414418612,0.087752675,-0.080094977,0.326111068,-0.003494984,0
5,0.204194897,-0.100735027,0.080306718,-0.031604064,0.133314895,-0.076264389,0.398159755,-0.132474777,0.026616565,-0.008058074,0.056970339,-0.08946552,0.312140562,-0.189578957,0.03327383,-0.021602703,0.061937133,-0.091330325,0.329359082,-0.114181285,0.037291147,-0.011618018,0.072735115,-0.061988812,1.318692123,-0.357612693,0.094875008,-0.064624249,0.054179281,-0.277222271,0.398135779,-0.021447429,0.028472472,-0.011619751,0.05394278,-0.074234226,0.590364495,-0.446781666,0.054091703,-0.038675114,0.097408386,-0.088107584,2.619320524,-1.48850986,0.035444249,-0.072769965,0.421145654,-0.293129273,0.913689455,-0.026115231,0.05027159,-0.093935771,0,-0.351553961,0.085758699,-0.417121841,0.023169767,-0.006504834,0.076017266,-0.071256611,0.232940855,-0.193274979,0.025008936,-0.010860984,0.078192614,-0.043916122,0.385347022,-0.416668446,0.020557103,-0.01992148,0.067822742,-0.095671957,0
6,0.244117119,-0.605384046,0.00741969,-0.006231358,0.05670272,-0.059073004,0.449133672,-0.681768641,0.035856291,-0.015999864,0.169786536,-0.056895066,0.664504968,-0.460560653,0.032868998,-0.026828822,0.131476669,-0.071885825,0.707001717,-0.358531899,0.036233581,-0.010488405,0.120189979,-0.109702275,0.147535544,-0.252498381,0.03412929,-0.012082364,0.095545711,-0.069732122,0.647004175,-0.729885362,0.036648179,-0.074224979,0.283402709,-0.079197961,0.394035029,-0.225401822,0.007936226,-0.015976712,0.119386358,-0.03105873,0.526381187,-0.517102459,0.002820276,-0.051330402,0.137146255,-0.191908609,0.195464529,-0.390929058,0.026584767,-0.014079757,0.094142618,-0.00981012,0.166604881,-0.199194217,0.032342346,-0.018060952,0.098872185,-0.005254495,0.231602183,-0.026462001,0.028125703,-0.02309067,0.079742024,-0.015320951,0.494203612,-0.688348235,0.037002342,-0.023676003,0.166168503,-0.064450969,0
7,0.256931126,-0.154395425,0.022844041,-0.008594106,0.029110952,-0.066838011,0.607534735,-0.003130586,0.019609514,-0.024108642,0.084005918,-0.045548035,0.576762763,-0.03420531,0.020322454,-0.037448046,0.11388722,-0.090802525,0.03238866,-0.410270477,0.040825934,-0.038942167,0.078931503,-0.116647325,0.306350882,-0.891561324,0.056708669,-0.081254829,0.198080035,-0.204914362,0.569567775,-0.012014951,0.019365912,-0.028519433,0.081639857,-0.05121725,2.26161599,-0.170282847,0.011742146,-0.070967761,0.376735887,-0.024599179,0.66724835,-0.186814637,0.038500481,-0.005108801,0.19901965,-0.075649547,0.587451541,-0.042686816,0.027651916,-0.006444569,0.135308979,-0.061773852,0.580708682,-0.03862407,0.025099112,-0.008896019,0.138756749,-0.045903884,0.712378408,-0.114895901,0.043892267,-0.01008148,0.172861465,-0.060093697,0.555519561,-0.100457391,0.04609551,-0.011523833,0.150332503,-0.058544331,0
8,0.20635814,-0.205614562,0.014219485,-0.010303401,0.022207991,-0.073555999,0.05112942,-0.767495888,0.018014941,-0.037539821,0.150143322,-0.005901122,2.727149987,-0.240500774,0.024214249,-0.054222954,0.419023987,-0.075775122,0.120094468,-0.048263902,0.031411416,-0.026116307,0.058897107,-0.058822819,0.130772653,-0.153362687,0.00832112,-0.009290026,0.045415667,-0.027240583,3.195196933,0,0.020268367,-0.050840423,0.475858695,0,0.396842244,-0.793684488,0.019855524,-0.011427304,0.106689215,-0.099166083,1.848885448,-0.924442724,0.008889443,-0.032154551,0.30304857,-0.141794422,0.525293858,-0.738272589,0.014500264,-0.017811653,0.163198926,-0.039573102,0.691871665,-1.383743331,0.010352139,-0.01380953,0.196548252,-0.105149057,3.676033663,-1.023103721,0.042033153,-0.041992677,0.554083528,-0.105713748,0.549900269,-1.363256671,0.044043116,-0.049916643,0.195501091,-0.11607369,0
9,3.777526006,-2.418975347,0.016059732,-0.032349473,0.539299129,-0.272762953,1.671812162,-0.250638326,0.013371799,-0.012630914,0.221400073,-0.046139541,1.281164841,-0.176905935,0.039102398,-0.010390685,0.462159726,0,2.329839975,-0.418479032,0.015045157,-0.011306798,0.30692105,-0.082346008,1.895194377,-0.367548938,0.021971949,-0.009805849,0.317551279,-0.012352862,1.254294112,-0.516928272,0.068307444,-0.033704941,0.229071187,-0.266586184,0.662203948,-1.028643053,0.038840934,-0.049902917,0.210352162,-0.121079994,0.361807674,-0.039120977,0.015284351,-0.008349856,0.073293504,-0.013339999,0.443622322,-0.204346132,0.017507069,-0.013666648,0.06959454,-0.050890155,1.659745827,-0.348247044,0.012160577,-0.019761109,0.204376059,-0.091411756,0.553027943,-0.364197789,0.014041484,-0.013699813,0.083397076,-0.063192421,0.22008266,-3.81019097,0.068633051,-0.028891777,0.553895967,-0.025037701,0
10,0.117164452,-0.283952456,0.109065438,-0.057598085,0.531537496,0,0.451162356,-0.281741569,0.095173363,-0.053341472,0.367853691,0,3.018745878,-0.111509599,0.100371235,-0.059232798,0.344596689,-0.146447525,0.596644017,-0.540091784,0.102962086,-0.061703024,0.439266084,0,0.954332881,-0.344871745,0.022035276,-0.009564502,0.12267432,-0.09458621,0.724783367,-0.349114877,0.092996047,-0.053493163,0.30573971,-0.052680091,0.410676756,-0.256180539,0.022520484,-0.037070869,0,-0.215863534,0.554127391,-0.015723157,0.016717183,-0.000651689,0.092678812,-0.042607179,1.105382095,-0.099569614,0.026039854,0,0.133696453,-0.118206043,0.205188576,-0.262155152,0.113084284,-0.090880244,0.446731562,0,0.184798607,-0.065910262,0.103348348,-0.088099417,0.32734894,0,0.158171238,-0.068037392,0.083218033,-0.051011917,0.25138296,0,0
11,0.845279075,-1.224493013,0.024592521,-0.047998873,0.172970966,-0.215569911,0.549367179,-0.474117964,0.045899519,-0.048367817,0.068190489,-0.161293555,0.705822221,-0.610614985,0.057295196,-0.05872691,0.087987298,-0.192818685,0.230699943,-1.738125479,0,-0.040405014,0.034552809,-0.381076834,0.619056072,-1.332096136,0.067242009,-0.070832504,0.132223942,-0.255352253,0.600816106,-0.552288345,0.051467649,-0.053354893,0.07265124,-0.179532697,1.397249874,-0.833830863,0.006782417,-0.037736644,0.197065234,-0.195995529,1.290596394,-3.033000347,0.033220688,-0.039696497,0.285983613,-0.288712127,0.292457702,-0.444627161,0.046532401,-0.066916744,0.094673958,-0.129370671,0.334867815,-1.131997901,0.008984951,-0.032095744,0.042591753,-0.247641175,0.499016163,-2.315396251,0.029064207,-0.036232832,0.07217288,-0.40329664,0.336166416,-1.668652638,0,-0.040854242,0,-0.401164835,0
12,0.174387468,-0.216036512,0.100135749,-0.051592018,0.379586777,0,1.082709845,-0.354142092,0.090722908,-0.065305705,0.35601151,-0.055365062,1.423589965,-0.987469921,0.080719485,-0.086317892,0.203014982,-0.284662468,0.183135287,-0.524267129,0.091184969,-0.06073129,0.291026527,-0.021072952,3.247898993,-0.551302955,0.088968114,-0.008569238,0.575383772,-0.131950025,1.310315299,-0.444520429,0.088570434,-0.068834655,0.320526239,-0.117627308,0.524270815,-1.582867603,0.018546185,-0.027125715,0.328342545,0,0.536002815,-0.768658622,0.03864116,-0.086104592,0.117748705,-0.305241789,0.45817886,-0.259182293,0.015721212,-0.018098519,0.12514908,0,0.720582436,-0.86683591,0.016748873,-0.013940036,0.133528203,-0.096865118,0.213356289,-0.183051096,0.076892138,-0.048281178,0.299233936,0,0.149924699,-0.446736687,0.063930735,-0.049984763,0.220610916,0,0
13,0.304559036,-0.334610344,0.069454958,-0.071655336,0.178400436,-0.04513195,0.934474849,-0.093700152,0.047975821,-0.015309961,0.245256243,-0.020594725,0.767241571,-0.19363199,0.042605396,-0.022477228,0.222940295,-0.01644792,0.509966264,-0.30929937,0.052111624,-0.029739743,0,-0.38380468,0.694223892,-0.740471884,0.022336482,-0.180483517,0.017407255,-0.499827402,0.709461636,-0.308792835,0.047939772,-0.018406792,0.2348359,-0.015886323,0.752725515,-0.316550502,0.014725508,-0.022416603,0.086492299,-0.094706519,0.548116243,-1.028230001,0.01575688,-0.0340324,0.10181431,-0.220937289,0.775526012,-0.352796385,0.040782792,-0.045028196,0.073090225,-0.12470116,1.320323105,-1.419585086,0.096966982,-0.05382125,0.300673158,-0.160531302,1.804842075,-0.582102623,0.037881881,-0.038004571,0.303875172,-0.101622095,0.848027795,-1.69605559,0.023496961,-0.041372535,0.364929798,-0.049095643,0
14,0.633306921,-0.126256199,0.032978973,-0.003638253,0.045444212,-0.127779646,0.505642348,-0.068154927,0.025373887,-0.004909606,0.073666614,-0.068911379,1.647782219,-1.404787127,0.110504744,-0.069546853,0.522794081,-0.028315269,0.360249469,-0.491725082,0.025946562,-0.003014771,0.027593872,-0.131275109,1.240997405,-1.020147436,0.070981938,-0.171751761,0.121076902,-0.391338995,2.198523736,-1.110447353,0.11431617,-0.036920214,0.590664297,-0.034547411,0.766346463,-0.384918034,0.096356363,-0.02426812,0.300747772,0,0.852675033,-0.730263757,0.017788315,-0.165897399,0.080611959,-0.281411372,0.209313147,-0.33544504,0.018141622,0,0.106327025,-0.039328534,0.73856775,-0.086501274,0.025709342,-0.03541428,0,-0.195877615,0.27324653,-0.234497561,0.026063552,-0.012313665,0.079100704,-0.031697001,1.252775806,-0.291042733,0.018278914,-0.015665081,0.164180283,-0.058874068,0
15,0.552511383,-0.794480054,0.069262616,-0.036103149,0.136797665,-0.204974562,0.276291611,-0.241859396,0.022226435,-0.024619061,0.040512579,-0.08815012,2.580644543,-1.539498262,0.033985098,-0.013021719,0.522428963,-0.045043999,0.597247293,-0.227227206,0.068977771,-0.048886375,0.100446844,-0.112944808,0.305726539,-1.254808174,0.056130575,-0.010376929,0.076212989,-0.314123134,0.431309569,-0.234023799,0.006056705,-0.011027542,0.050170029,-0.050021052,0.17489542,-0.230106749,0.026108742,-0.006460168,0.009525905,-0.113942985,0.246900731,-0.341384438,0.016355,-0.060411233,0,-0.259244913,0.190319724,-0.344949828,0.007311881,-0.024664737,0.062801913,-0.059061461,0.167784266,-0.180253708,0.052077253,-0.03114205,0.099869109,-0.017443833,0.170678308,-0.085339154,0.021078943,-0.017522192,0.041623358,-0.021736725,0.163900265,-0.113105764,0.030837067,-0.022487443,0.046098399,-0.034075102,0
16,2.429326803,-0.576686771,0.107681567,-0.092719223,0.368979231,-0.134579439,0.433510651,-0.853568657,0.048618704,-0.089959459,0.357329914,0,0.41454886,-0.691287175,0.018458542,-0.072393582,0.176530411,-0.063768815,0.188176628,-0.839995749,0.075307048,-0.083566166,0.367698637,0,1.133547706,-0.520677495,0.028611705,-0.052221668,0.077456002,-0.244554559,0.63820122,-0.558647994,0.034517432,-0.083151508,0.299424505,0,0.311343877,-0.699028568,0,-0.018664124,0.172529011,-0.00877948,0.957282456,-0.162157547,0.04758502,-0.045561206,0.256566118,-0.060165154,1.114990613,-0.176717707,0.028408488,-0.075504809,0.165055387,-0.069624932,0.810849913,-0.480550084,0.074437819,-0.1075699,0.093153095,-0.136892176,0.450385093,-1.365342594,0.088144536,-0.094767467,0.469378663,0,0.389666732,-0.742573888,0.054401248,-0.091600447,0.314366302,-0.004113794,0
17,1.066906409,-1.458366171,0.02759412,-0.026900472,0.003284427,-0.424253464,1.055465381,-0.142738817,0.076753253,-0.023247682,0.299495811,0,0.886757462,-1.001247729,0.035757114,-0.017371111,0.084592479,-0.234448698,1.846856788,-2.181740801,0.080572554,-0.01872415,0.417205021,-0.153261868,0.082299135,-1.941000023,0.032462888,-0.01672216,0,-0.305896642,0.672206564,-0.981571332,0.046057774,-0.021985363,0.192528705,-0.164701099,0.563090755,-1.642231474,0.026165057,-0.002323152,0.094032968,-0.2398238,1.390085967,-0.768087301,0.028206938,-0.015369692,0,-0.361317297,0.778059369,-1.315743213,0.027333066,-0.01816463,0,-0.381225955,1.609936031,-0.782222063,0.026102648,-0.02228248,0,-0.423474384,2.014619202,-1.045363748,0.074626295,-0.047496485,0.348066101,-0.11287928,1.008692568,-1.596090604,0.03500788,-0.015407039,0.160385574,-0.281461247,0
18,0.08997461,-0.279302883,0.013553706,-0.046682808,0.034498173,-0.136392419,0.755672674,-0.488998127,0.031251871,-0.06224066,0.10482538,-0.291414727,0.895601977,-0.518375638,0.036841971,-0.013153196,0.03484761,-0.241626426,0.057050717,-0.345786789,0.005343593,-0.050553693,0.058568575,-0.214539839,0.013377394,-0.596781575,0.04871645,-0.025467367,0.065541004,-0.126756324,0.464614855,-0.31582097,0.027574216,-0.012710604,0.015573972,-0.154619281,0.313443943,-0.572448137,0.030734631,-0.024170514,0.07361621,-0.096383101,0.178545412,-0.42432374,0.08627155,-0.043007958,0.18530663,-0.01841292,0.491720914,-0.261354475,0.021824823,-0.022158655,0.094242308,-0.092469455,0.39853013,-0.451395934,0.021853037,-0.030464097,0.138271489,-0.117996898,0.219614161,-0.38614809,0,-0.033376218,0.147904864,-0.086932945,0.228158997,-0.225193348,0.085173315,-0.058974971,0.166965025,-0.126212885,0
19,0.27847941,-0.327196283,0.12569722,-0.021735689,0.124920474,-0.127583543,1.709396852,-0.481551691,0.165297791,-0.129501519,0.309752862,-0.211703441,0.619475062,-1.351341235,0.089877455,-0.129632278,0.251244782,-0.224549473,0.596563928,-0.870349094,0.064299192,0,0.179947848,-0.341671813,1.359474442,-0.455840269,0.058908063,-0.027098719,0.167547979,-0.113773912,1.503211917,-0.706141206,0.041944318,0,0.310681367,-0.190354808,0.820739102,-3.005993259,0.088446252,-0.065407394,0.273814229,-0.405619407,0.865160304,-0.631880097,0.04184656,-0.068631416,0,-0.386004716,0.315390004,-0.566739442,0.059830294,-0.073749832,0.15452954,-0.068718475,0.501555332,-1.052546267,0.014674472,-0.031572195,0.086484816,-0.158128259,0.308778979,-0.694477462,0.15834134,-0.13034568,0.394271768,0,1.734655586,-0.084276953,0.027897481,-0.002219873,0.302746793,-0.054746935,0
20,0.061633489,-0.037274575,0.007616753,-0.004588576,0,-0.042749495,0.167394012,-0.162256297,0.020313046,-0.018743867,0.063333068,-0.007447164,0.224312063,-0.172342393,0.023092624,-0.031279207,0,-0.209476741,1.298523587,-0.045754463,0.018490583,-0.087450503,0.327489391,-0.065319934,0.825336879,-0.19433699,0.015996053,-0.008927255,0.122888261,-0.038699314,0.098133261,-0.200781289,0.013915659,-0.024686246,0.011087324,-0.071707843,1.655749058,-0.569181569,0.062055393,-0.072152247,0.20219441,-0.266835283,0.094174758,-1.137726283,0.032461846,-0.019557446,0.178193483,-0.016947151,0.230951822,-0.11482192,0.019164052,-0.025722653,0.078501258,-0.00706928,0.081593151,-0.267107882,0.017366015,-0.02168131,0.063500637,-0.015651922,0.169025938,-0.023804704,0.017072975,-0.017691977,0.056406276,-0.001270475,0.127724211,-0.057666504,0.017653635,-0.022650291,0.051491795,-0.010370158,0
21,2.781526849,-0.537172925,0.028453814,-0.128257631,0.489558485,-0.124850781,0.640947959,-0.466361846,0.023682232,-0.026897506,0.107038667,-0.086280523,0.552586771,-0.731038117,0.016134772,-0.048345651,0,-0.38195467,0.627258991,-0.884229374,0.041213634,-0.064508289,0,-0.502233464,0.110398939,-1.482364897,0.00886144,-0.06054237,0.109228402,-0.286223032,0.635176283,-0.544366837,0.02284824,-0.08591551,0.235120067,-0.245442678,0.219568522,-0.286747388,0.040082346,-0.069977223,0.014837267,-0.206539056,0.276870003,-0.510460384,0.011513347,-0.014329649,0.087783585,-0.059083644,1.604183522,-0.281352807,0.047203149,-0.031151163,0.26301673,-0.016415466,0.497140546,-0.442460397,0.038591594,-0.011786994,0.202931278,-0.034267355,1.070237955,-0.706700421,0.078276263,-0.110286093,0.376704554,-0.086888369,0.839827919,-2.49004492,0.037205752,-0.050894895,0.125333875,-0.391321102,0
22,1.855074096,-0.942074953,0.047581889,-0.023074219,0.064706661,-0.404230663,1.368622421,-1.003341365,0.037540487,-0.01518589,0.062585039,-0.281080764,0,-2.123049485,0.040382223,-0.012429685,0,-0.293323717,1.363962241,-0.944161404,0.036634981,-0.019815723,0.100580382,-0.229513725,0,-2.213319709,0.041992747,-0.010107705,0,-0.2976145,0,-2.043708787,0.038911936,-0.013920168,0,-0.287581244,2.048586856,-2.22E-16,0.021354894,-0.088983004,0.119199558,-0.234295581,0.615578983,-0.776902153,0.054899546,-0.033458263,0,-0.399245583,1.113873865,-0.914914369,0.074724097,-0.023204116,0,-0.490677709,1.231710601,-1.108003273,0.119743577,-0.082612357,0.281737697,-0.34804539,1.429489063,-0.560355207,0.067880411,-0.039932601,0.184992286,-0.160233647,1.113536502,-0.785819869,0.037869812,-0.017085337,0.076598831,-0.218001916,0
23,0.975746935,-0.143039472,0.060981474,-0.084012954,0.23022042,-0.036727596,0.24470629,-0.585657705,0.026917782,-0.076346562,0.071321378,-0.127833778,0.34079589,-0.983599298,0.025407071,-0.067493203,0.093470438,-0.16902914,0.279394364,-0.938910367,0.03141243,-0.07971186,0.067397824,-0.235576996,0.366800629,-0.69860576,0.026553025,-0.002972299,0.111144868,-0.125308055,0.138938073,-0.888886367,0.020577741,-0.073959651,0.078414906,-0.141035705,0.094891377,-0.83527825,0.065468552,0,0.21168239,-0.261067559,0.515305854,-0.376473324,0.030660602,-0.068028043,0.203389212,-0.007738827,0.475228408,-0.530022048,0.022689336,-0.09180289,0.178617496,-0.084108642,0.261263285,-0.447610981,0.045662455,-0.087266558,0.094805387,-0.110984123,0.177589398,-0.864659112,0.051127398,-0.071675122,0.097604485,-0.087099149,0.194679307,-2.865327953,0.051103059,-0.010303542,0.09743039,-0.477272527,0
24,0.789616623,-0.037262252,0.074064324,-0.060608202,0.115745127,-0.123414681,0.224402645,-2.352685197,0.019163094,-0.035086755,0.083721765,-0.334302296,0.00783346,-2.204267745,0.011508772,-0.043540004,0.019633753,-0.359103975,0.053063803,-2.245883512,0.042078169,-0.024755291,0.099111424,-0.272666932,0.103581776,-1.997441317,0.011221135,-0.049234867,0.024801654,-0.376120005,0.042371841,-2.285308336,0.01278626,-0.039788083,0.038156746,-0.348352093,1.090598726,-1.081320798,0.021908083,-0.025150901,0.057879807,-0.277479459,0.806749252,-1.071696014,0.028151808,-0.036012009,0.043156129,-0.281102757,0.790442273,-1.25910158,0.026912613,-0.037044543,0.054361204,-0.286067216,0.304609972,-1.741265367,0.028087096,-0.038508702,0.048865561,-0.294962199,0.834483121,-1.133021157,0.027186534,-0.039553037,0.042762404,-0.292332427,0.27204616,-1.696533313,0.027119204,-0.038435451,0.045191794,-0.2886452,0
25,0.378108679,-0.165599895,0.061699167,-0.099638512,0.080577354,-0.168926771,0.288505102,-0.586932499,0.106727854,-0.04289958,0.336205207,-0.028201086,0.531258834,-0.745262354,0.024574602,-0.019102465,0.080943761,-0.132807296,1.858623662,-1.384180304,0.114733958,-0.040354382,0.276091515,-0.319238506,0.468299229,-0.646124681,0.048525207,-0.032550299,0.134416877,-0.114081493,0.430516637,-0.701410619,0.117311076,-0.035013372,0.429869554,-0.019640794,0.255079409,-1.21475353,0.007966634,-0.026002236,0.172519689,-0.045383284,1.342204228,-0.159219319,0.012368427,-0.029040096,0.173285569,-0.086041008,1.030022378,-0.453827902,0.208257665,-0.095216975,0.233905809,-0.254776897,0.862659561,-0.037870172,0.147831942,-0.106277145,0.161313307,-0.188142634,0.121303539,-0.249224292,0.081176512,-0.058924822,0.199001844,-0.048863765,0.308790038,-0.332493746,0.078958363,-0.039373036,0.306227672,-0.009169674,0
26,0,-1.041107527,0.088158824,-0.069857667,0.095727905,-0.168262133,2.556045752,-0.586655046,0.021589576,-0.014895564,0.318972027,-0.128766306,2.16016219,-0.092529374,0.009841217,-0.024960285,0.324418025,-0.011560762,1.425376146,-0.5425071,0.06911272,-0.0327494,0.254303589,-0.046080637,3.799559735,-0.132122884,0.058917414,-0.035309899,0.270948969,-0.341472086,2.543524651,-0.115573825,0.011187813,-0.01082063,0.319043678,-0.055063059,0.464316054,-1.463463661,0.049630437,-0.039849346,0,-0.348739065,2.011398557,-1.613313502,0.034502722,-0.018327727,0.246973036,-0.34650287,0.029037726,-1.330212284,0.018890074,-0.010484058,0.041173394,-0.202302975,1.3522511,0,0.013410395,-0.027070754,0.183357586,-0.074474052,0.446020174,-1.971823437,0.064018522,-0.027246172,0,-0.457442947,0.150754214,-1.293423731,0.064965388,-0.026136911,0.060806617,-0.233251667,0
27,0.180918532,-0.177992322,0.010690546,-0.010317796,0.014959443,-0.053981841,0.132987112,-1.0339434,0.094128509,-0.063862017,0.286200005,-0.03622454,0.566140535,-0.206187886,0.026592137,-0.051599525,0.046019339,-0.145813638,0.117429388,-0.234858776,0.012885645,-0.010601343,0.015582728,-0.053987588,0.719463159,-0.122479088,0,-0.084504581,0,-0.4101717,0.116901946,-0.437440266,0.0515388,-0.057881011,0.127445274,-0.08045337,3.880969751,-2.017524979,0.025329998,-0.107655102,0.150476714,-0.705660953,0.17983977,-0.875231312,0.00830132,-0.003577694,0.132048161,-0.038523901,0,-2.993091056,0.044181627,-0.023902487,0.045708881,-0.494884705,4.370335333,-1.981437414,0.036185158,-0.057187995,0.501222361,-0.451076605,0.640063057,-0.469727544,0.021711485,-0.036146137,0.107342464,-0.042630599,0.85503158,-0.883776424,0.05905387,-0.059238838,0.174696994,-0.219464282,0
28,0.177013396,-0.33997905,0.119346819,-0.080248243,0.391624251,0,0.27020069,-0.158997543,0.084719823,-0.089163821,0.151608356,-0.109789087,1.354270166,-0.127021553,0.003735244,-0.125433561,0.353390846,-0.317093744,2.427555214,-0.474262747,0.082027797,-0.034959703,0.16706599,-0.40548307,0.313820439,-5.55E-17,0.055342277,-0.046281886,0.058327649,-0.108827415,1.025540345,-1.026961888,0.088229161,-0.131708548,0.328684074,-0.197466149,1.477252168,-1.955367644,0.021244946,-0.055471007,0.288106746,-0.234095713,0.02614667,-0.68205241,0.101330968,-0.075607002,0.297207764,-0.009095774,0.677360949,-0.332783992,0.088239205,-0.07399043,0.254472346,-0.060808648,0.842168478,-0.969472312,0.076077949,-0.062423171,0.205912469,-0.129580346,0.328220513,-1.544630502,0.070550475,-0.076091143,0.168231925,-0.237215789,0.429808304,-0.1109994,0.077801139,-0.077809333,0.227331291,-0.045995188,0
29,2.001909037,-0.449160526,0.022149492,-0.023954973,0.232112022,-0.163666969,0.355570889,-0.053407255,0.014434771,-0.011769035,0.05330623,-0.021075729,0.363855289,-0.0683078,0.022188973,-0.013686202,0.043160046,-0.047049903,0.679550754,-0.206233988,0.01456055,-0.012250662,0.097874317,-0.032636508,2.046994044,-0.043403408,0.012491615,-0.025234709,0.323594358,-0.032022685,0.291444166,-0.067622486,0.01920306,-0.013070076,0.045919583,-0.02730811,1.535015353,-0.770677466,0.00099005,-0.051713683,0.227635856,-0.170879464,0.369030999,-0.181633849,0.015487087,-0.014267913,0.076156209,-0.038366787,0.687760534,-0.078341106,0.019916594,-0.014761257,0.083164741,-0.045164798,0.644349852,-0.69145985,0.020059072,-0.018713207,0.080036175,-0.14503518,0.318313775,-0.294841279,0.026537191,-0.010573142,0.071498051,-0.050591549,0.517698418,-0.159900262,0.019533702,-0.018596744,0.076349624,-0.057472654,0
30,0.019361741,-0.673688893,0.031289,-0.039423295,0.042865021,-0.109164179,0.878863603,-2.403512425,0.028803307,-0.057511222,0.215083694,-0.251271852,1.260808539,-0.833754706,0.028487076,-0.046224335,0.207417201,-0.104812299,0.788234835,-0.300567952,0.013902051,-0.049512246,0.001543857,-0.316862042,0.505064184,-0.163712546,0.028795841,-0.04505781,0.119871275,-0.062478839,1.245410768,-1.138108737,0.027699066,-0.044028795,0.208455326,-0.13632953,2.345789265,-0.474968622,0.017844338,-0.024280543,0.252266625,-0.133005435,0.5730931,-0.130178944,0.036793337,-0.014098488,0.137544692,-0.015290638,0.17582769,-0.198044267,0.005248265,-0.025291546,0.099205078,-0.049974665,0.859415861,-0.140755794,0.016405981,-0.031793133,0.180387603,-0.023573472,0.673986358,0,0.001639445,-0.024435192,0.146633616,0,1.592720425,-1.083834342,0.023800872,-0.027439169,0.269531924,-0.134715507,0
31,1.174876816,-0.008612602,0.021380883,-0.009839171,0.053387267,-0.160686237,2.911035996,-0.755848679,0.079388942,-0.044273329,0.429799636,-0.11750927,0.529775799,-0.466206248,0.086845594,-0.059986151,0.387072017,0,0.964190207,-0.579709403,0.067129387,-0.058102422,0.194314401,-0.363345823,0.541780216,-0.504807571,0.019968935,0,0.041548132,-0.143107416,0.441149912,-2.781168834,0.096858634,-0.048196708,0.443708253,-0.041893373,0.439082293,-0.248337322,0.011978574,-0.01551079,0.139733078,0,0.175951086,-0.396137545,0.019989454,-0.013619767,0.036565418,-0.081934125,0.291402184,-0.14174989,0.020466269,-0.008290158,0.024639327,-0.072964806,0.206875182,-0.152953934,0.020380458,-0.007898885,0.012202434,-0.097773038,0.219385195,-0.084687923,0.018266663,-0.009792254,0.015494191,-0.068067744,0.332147589,-0.13195223,0.017946647,-0.012111821,0.025577169,-0.078880085,0
32,1.43215965,-1.022860764,0.041173326,-0.009088176,0.202447839,-0.19033016,0.428002859,-0.375950713,0.068011857,-0.012879781,0.206286626,-0.186833697,2.093536088,-0.101870288,0.012445258,-0.013331757,0.283128166,-0.052994019,0.713857716,-0.48394388,0.049153319,-0.004434973,0.163530826,-0.174508082,1.779678493,-1.099132325,0.021116316,-0.016487619,0.277293573,-0.145554365,2.504099824,-0.872971934,0.012242974,-0.023138842,0.253308962,-0.245007408,1.993017783,-0.073714836,0.012877239,-0.010094511,0.274349315,-0.045081181,1.482707404,-0.433946002,0.059026375,-0.048710603,0.259505744,-0.057545188,1.979088965,-1.483567012,0.030397726,-0.026015768,0.299556453,-0.188951569,1.969743969,-0.915097295,0.019855251,-0.015676518,0.293069266,-0.116591617,2.044756774,-0.537084032,0.00871408,-0.010634198,0.307250811,-0.059507456,1.938180967,-0.575357929,0.006236806,-0.011072826,0.313693869,-0.046234445,0
33,0.574399275,-0.319354765,0.034961191,-0.007198315,0.108401429,-0.086877059,0.132175923,-0.587430941,0.034105048,-0.011845082,0.116148762,-0.068113742,0.05435305,-0.986961398,0.040918949,-0.021134654,0.182213488,-0.03267508,0.236431803,-0.52313176,0.035148704,-0.010271734,0.117081561,-0.08623459,1.829177605,-1.484019547,0.079636025,-0.146726339,0.142739006,-0.571834633,0.067318678,-0.494682497,0.035070434,-0.019183032,0.144124748,-0.026330587,0.219519152,-0.132956814,0.017598363,-0.004429634,0.063851881,-0.021780298,0.320943143,-1.173130093,0.016038763,-0.009209551,0.151315418,-0.07056835,0.103808347,-0.17273922,0.011854041,-0.00686919,0.058282386,-0.013039751,0.817094842,-0.652618318,0.038129425,-0.0674423,0.158086795,-0.135595477,0.491392237,-2.001760714,0.087833582,-0.057469146,0.382447417,-0.077155811,1.918765447,-0.116153675,0.066846187,-0.030045899,0.38367951,0,0
34,0.307053618,-0.107255565,0.105846199,-0.017896194,0.110279549,-0.103774765,0.317011362,-0.276199444,0.089144636,-0.020253268,0.190066598,-0.076521102,0.901705029,-1.000282099,0.139497751,-0.086219684,0.224305403,-0.234320246,0.187291873,-0.408635358,0.091769346,-0.019204909,0.162994577,-0.086466969,0.963374114,-0.190514929,0.080855677,-0.020523015,0.154203248,-0.075731444,0.194164921,-0.618217212,0.026775484,-0.038601526,0.076971755,-0.102081781,0.79023727,-1.351326211,0.048497472,-0.030102336,0.332006629,0,0.843859826,-0.091953403,0.004982293,-0.026641888,0.151915858,-0.026484293,0.06637752,-0.090072151,0.02946416,-0.020688729,0.059300035,-0.026635062,0.080959187,-0.704830196,0.104010934,-0.068410779,0.15794395,-0.058505545,3.773329891,-0.212954678,0.096141074,-0.05970973,0.445907208,-0.122637798,0.20156434,-1.280439867,0.084994169,-0.047232308,0.485559032,0,0
35,3.254763348,-0.344960362,0.04949722,-0.042783279,0.473530013,-0.074643348,0.430092092,-0.092189745,0.05694048,-0.017935373,0.142109685,-0.021777526,0.286061899,-0.64940363,0.065307438,-0.038242295,0.044843525,-0.170960467,0.959778441,-0.39571637,0.038218532,-0.05843084,0.354024874,0,1.035365741,-0.572425984,0.042943517,-0.068025381,0.215142045,-0.108559528,0.159883372,-0.159143304,0.027427801,-0.013876693,0.095029449,-0.028431003,0.064251341,-1.220506422,0.021024604,-0.056166126,0.299647322,-0.083568735,0.949212366,-0.870072176,0.020930832,-0.007757287,0.080779508,-0.198986041,2.07945433,-0.182287238,0.016623716,-0.015156253,0.32177194,-0.011784498,0.168354694,-0.145458569,0.024241064,-0.006434056,0.065039345,-0.06101681,0.184842963,-0.369685927,0.03202129,-0.009373299,0.049472489,-0.128044454,1.536425886,-0.712479521,0.038254981,-0.020883472,0.055549056,-0.317400458,0
36,0.209762802,-2.541607742,0.03604755,-0.016863802,0.028352125,-0.41704984,0.820598342,-1.641196685,0.036519491,-0.021156426,0.028893289,-0.408605906,0.325309703,-0.065326579,0.044197266,-0.069114564,0.151619835,-0.080365908,0.188719081,-2.845690308,0.025375821,-0.01463062,0.041113843,-0.412467126,1.58172724,-0.286585181,0.010619865,-0.023429375,0.199592416,-0.076862575,1.781434396,-1.721169609,0.065374846,-0.052030995,0.305384427,-0.303495316,0.051390181,-2.39417104,0.032608181,-0.004540949,0.030530628,-0.369354333,0.601506321,-2.251354767,0.027943353,-0.004623704,0.090819457,-0.351265837,1.178973565,-1.347973415,0.039719216,-0.037802035,0.136820574,-0.27340957,1.081025396,-1.80278485,0.025096401,-0.026442765,0.099252281,-0.340616671,2.627046743,-3.921907353,0.063136016,-0.064341128,0.4482956,-0.425678587,0.677149748,-1.400575869,0.006924292,-0.015041437,0.295268327,-0.023963727,0
37,0.371906296,-0.043545941,0.020969803,-0.018232276,0.053193282,-0.037228952,3.039703366,-0.056750064,0.030856144,-0.025580018,0.38035754,-0.039649717,0.248194171,-0.116545247,0.039879055,-0.009407597,0.199820657,0,0.188554583,-1.907495121,0.016353477,-0.015191365,0.007758487,-0.308330955,2.716412618,-0.07690699,0.042228186,-0.041941993,0.353125199,-0.083883987,2.408886376,-0.076613914,0.025097101,-0.017156788,0.303784879,-0.034002357,1.066137796,-0.343373284,0.045040814,-0.073457618,0.306136498,-0.082120556,0.443970472,-0.541658076,0.026784022,-0.048807068,0,-0.365123618,1.961479188,-0.018675173,0.017022072,-0.006705038,0.27632583,-0.006133308,0.312639651,-0.06542678,0.020559689,-0.012194083,0.035494567,-0.048232003,3.085950885,-0.11540846,0.033384332,-0.033214712,0.399074712,-0.036399068,2.580048734,-0.04752784,0.03054176,-0.023441569,0.332205571,-0.028180689,0
38,0.503620623,-0.628881688,0.14494757,-0.174457254,0.242414915,-0.233501049,0.29543078,-0.251711277,0,-0.081132891,0.140095344,-0.176125998,0.610160104,-0.585549143,0.039740111,-0.084740256,0.297003972,-0.033090935,0.426073603,-0.126636018,0,-0.053986855,0,-0.332182996,0.802284981,-0.426799859,0.08633452,-0.1372195,0.323959958,-0.102535304,0.611165187,-0.217279247,0,-0.062551441,0.249002717,-0.031011786,0.397585173,-0.570194634,0.029898181,-0.006976153,0,-0.225801337,0.544606559,-0.172774493,0.045087856,-0.063897677,0.331705681,0,0.707503224,-0.217119537,0.032435122,-0.051192687,0.280666374,0,0.69872978,-0.422601422,0.031278633,-0.04100078,0.305818886,0,0.291371685,-0.122091424,0.01915906,-0.059330581,0.196480841,0,0.39513653,-0.134471675,0.020699913,-0.053606502,0.190007144,0,0
39,1.038290291,-0.633747216,0.028414571,-0.031079679,0.187707455,-0.05273976,1.490577381,-0.471301095,0.022292147,-0.036293601,0.287173317,-0.039815406,1.801771893,-2.123777896,0.00811991,-0.085926858,0.243478707,-0.371793287,0.454231055,-1.08551037,0.019283232,-0.020030277,0.19506894,-0.041183571,0.941989322,-0.933356183,0.010536936,-0.025489987,0.08924673,-0.203050618,0.677348487,-1.705496995,0.006665497,-0.042149046,0.310018215,-0.128659332,0.980565209,-0.31451075,0.017676872,-0.012567994,0.150838947,-0.06161023,0.717285261,-0.403658188,0.017098562,-0.015143554,0.121531542,-0.090841635,0.346133547,-1.650928942,0.02995281,-0.029742197,0.161713672,-0.20902106,1.11119643,-0.989735736,0.03006066,-0.056568459,0.227205086,-0.139926203,0.751259787,-1.132554435,0.050379038,-0.034249522,0.16565379,-0.146238349,1.115889587,-1.392541073,0.071926523,-0.041854427,0.310382185,-0.138610655,0
40,0.060349719,-0.278697768,0.019713078,-0.004480298,0.028667577,-0.072482004,0.131119889,-0.174025619,0.016779243,-0.010053658,0.032007979,-0.05318139,0.154794191,-0.19464162,0.073309005,-0.04279506,0.277950028,-0.017578214,0.273848963,-0.104716772,0.018283331,-0.00806206,0.031748151,-0.053005772,0.338629693,-0.169171264,0.01164412,-0.039032408,0.088775632,-0.090055664,0.387368018,-0.182398726,0.01832079,-0.012097894,0.038886784,-0.075142073,0.796546991,-0.310994362,0.042787312,-0.024123207,0.158707222,-0.040139654,0.115452306,-0.12634117,0.016186498,-0.010599368,0.033297722,-0.039467687,0.125059358,-0.222913761,0.020188584,-0.014626246,0.030979551,-0.055518257,0.082494107,-0.077273914,0.01767792,-0.015351868,0.018201152,-0.044989533,0.049029819,-0.05780598,0.024275384,-0.010853252,0.008675857,-0.055562869,0.024850659,-0.109524884,0.026612423,-0.01489675,0.017060256,-0.050737549,0
41,0.304139182,-0.126821871,0.029813429,-0.002934573,0.050392333,-0.085043818,0.530740908,-0.358143473,0.026088595,-0.003481761,0.099473317,-0.096978648,0.616065892,-0.563832202,0.032648523,-0.009017805,0.136381385,-0.117334434,0.633369553,-0.367148749,0.032990101,-0.003231356,0.13854874,-0.083683238,1.060532975,-0.429140382,0.041050357,-0.036987062,0.114844476,-0.195193653,0.421421754,-0.538465461,0.028209174,-0.004286333,0.098361606,-0.109376222,1.052602138,-0.120360627,0.057571285,-0.036820264,0.008225936,-0.245998484,0.514975949,-0.790718865,0.013628129,-0.006155815,0.128066452,-0.061108761,0.616052478,-0.231046621,0.016489484,-0.005549539,0.105799295,-0.06465089,0.275546335,-0.00405686,0.021129622,-0.00827508,0.071686703,-0.035822476,0.320596249,-0.411428758,0.181125912,-0.13771351,0.093370684,-0.289772919,0.328777906,-0.733652531,0.124691122,-0.107907584,0.06423648,-0.263785979,0
42,0.307309033,-0.367003026,0.041067634,-0.088177455,0.109225324,-0.165742355,0.861947037,-0.974541932,0.05219907,-0.061800375,0.167285689,-0.14503805,2.349344303,-0.043603413,0.034745765,-0.079795339,0.346281488,-0.153809953,0.611921387,-0.241891728,0.051304197,-0.080665217,0.085888035,-0.172184365,0.887911158,-0.571377443,0.048453196,-0.098105761,0.222566662,-0.150771716,1.28411611,-0.757982053,0.044848253,-0.040847152,0.149832507,-0.188601272,0.581742646,-1.298327729,0.027010771,-0.043227087,0.08162379,-0.213281289,4.440748452,-0.619664312,0.001104359,-0.083828284,0.714524198,-0.100022675,0.959392213,-0.496636551,0.052843343,-0.034128981,0.187828839,-0.138756169,0.981992073,-1.963984147,0.083438882,-0.102898728,0.32380273,-0.16908846,1.714007929,-1.176048999,0.061105707,-0.079974497,0.317097938,-0.227968123,0.876037241,-0.801916446,0.048948111,-0.078567773,0.066967546,-0.324622924,0
43,1.765309171,-0.010449286,0.027057226,-0.017672351,0.201306583,-0.060044384,1.889844401,-0.345290491,0.027244032,-0.026495717,0.183511582,-0.123894836,1.782695774,-0.256230832,0.02456983,-0.029435297,0.138240813,-0.167436229,0.454917836,-0.286995774,0.023497632,-0.025059836,0.038050159,-0.088007216,0.364801057,-0.04302381,0.059054977,-0.005607776,0.103328735,-0.186808304,1.914714117,-0.298841387,0.02711583,-0.026451778,0.16644534,-0.13658414,1.120423974,-0.674025224,0.052204695,-0.044854005,0.162352764,-0.154441217,1.996061363,-0.54701329,0.011460646,-0.016702533,0.277061143,-0.067801352,1.952970568,-0.088015425,0.011912694,-0.013168216,0.24905414,-0.03598643,1.953072676,-0.035100293,0.018506536,-0.014212439,0.24498705,-0.04333819,1.908994494,-0.07150028,0.022789213,-0.013889894,0.232441492,-0.050181435,1.718039375,-0.357513136,0.024862266,-0.022366104,0.225871572,-0.082955774,0
44,1.33133391,-0.248731685,0.091099244,-0.101114129,0.376165395,-0.03107384,0.415640742,-0.149786045,0,-0.069389594,0.092524501,-0.328816101,0.187805909,-0.305589186,0.065124015,-0.121647714,0,-0.343862865,0.724746239,-0.191364798,0.078173346,-0.016444671,0,-0.411778259,0.497269431,-0.222616106,0.064466372,-0.111180354,0,-0.466497723,0.416919915,-0.257317856,0.020409184,-0.09264601,0.215662398,-0.231604511,1.901773181,-0.449705289,0.023164152,-0.090996313,0.245100254,-0.190226601,1.924765377,-0.049834571,0.020800056,-0.049464113,0.244692968,-0.096014556,0.25094159,-1.413400995,0.035826033,-0.06480624,0,-0.391652187,2.281445064,-0.106244619,0.074786787,-0.136135517,0.337335696,-0.136093545,1.352442257,-0.496229721,0.148312398,-0.134055908,0.33026477,-0.365342835,0.656882247,-0.346076425,0.103331019,-0.109399029,0.285037082,-0.279737878,0
45,0.539624117,-0.254884011,0.080661162,-0.011832524,0.360649404,-0.000565266,0.875718941,-1.62279606,0.011381272,-0.055875527,0.33206786,-0.197339339,0.552195111,-1.87456172,0.023275972,-0.019779805,0.31159918,-0.060148505,0.445192245,-1.951013651,0.051984836,-0.063470035,0.359551745,-0.264150007,0.284414048,-1.40744156,0.027872523,-0.011700508,0.293530318,0,0.413039391,-2.378302507,0.01260409,-0.026256308,0.314597973,-0.128748267,1.027107596,-2.913782003,0.027759242,-0.019306745,0.177959318,-0.415293491,0.972859763,-0.537360324,0.02366225,-0.027974854,0.197445037,-0.057996991,0.681166136,-0.614111572,0.005164378,-0.031118216,0.15021203,-0.078671596,0.679929466,-0.763841492,0.001152116,-0.027347132,0.175969652,-0.076775633,0.183823767,-1.574530149,0.099460777,-0.1381582,0.312841988,-0.231337786,0.27750077,-1.957084934,0.091006786,-0.103703362,0.24963066,-0.254935689,0
46,0.736775887,-0.245859073,0.021552764,-0.020337262,0.119494449,-0.039250762,0.019269708,-2.025540792,0.106376526,-0.060460311,0.406939035,-0.017444104,0.42127935,-0.372244774,0.078061693,-0.072320554,0.160142972,-0.101445045,0.607494029,-0.44243031,0.115728493,-0.085154662,0.307542574,-0.180752769,0.45765893,-0.00451116,0.010217334,-0.034534533,0.135288125,-0.011789268,0.123067826,-0.292270238,0.091583923,-0.065765142,0.252735152,-0.014096012,0.835034504,-1.892991883,0.075843599,-0.030086387,0.196678881,-0.322117015,0.47322639,-0.236680964,0.00252173,-0.026052059,0.135183928,-0.021938143,0.265321539,-0.035674862,0.001624581,-0.01353193,0.088313458,0,1.304108057,-0.131872413,0.007320034,-0.024867012,0.228995548,0,0.193223815,-0.189127101,0.08054789,-0.077451404,0.366298818,0,0.105163734,-0.11836436,0.077498548,-0.073591302,0.232239218,-0.027116027,0
47,0.152328068,-0.53147082,0,-0.030595082,0.061481383,-0.15425927,0.08966868,-0.294024048,0.004714163,-0.036580868,0,-0.274794576,0.097642734,-0.127314256,0,-0.03969798,0,-0.299259007,0.461129198,-0.365577515,0,-0.02887954,0.019734017,-0.19718908,0.109873093,-0.184690055,0.004380429,-0.00297942,0.012437116,-0.041478281,0.037062592,-0.166844163,5.45E-05,-0.037947239,0,-0.289147495,0.489349044,-0.908354315,0.000185027,-0.038584612,0.033553788,-0.309873674,0.518677501,-0.468292077,0.016579915,-0.005591109,0.102202219,-0.062125198,0.272507063,-0.195247766,0.047652617,-0.057647729,0.237549549,-0.079738861,0.072694518,-0.210652937,0.00122513,-0.023411113,0.000201343,-0.145550262,0.104381997,-0.270905303,0.001348345,-0.031653935,0,-0.253149716,0.096781631,-0.323812642,0.004291121,-0.0400176,0,-0.310332672,0
48,1.249527206,-2.428273787,0.048074469,-0.011457553,0.138488246,-0.4577608,0.319118369,-3.095903048,0.063672199,-0.039126094,0.279742269,-0.208519897,1.447682083,-3.555186364,0.046159122,-0.04127854,0.238426889,-0.495495255,0.224604169,-3.721245806,0.058549197,-0.021423923,0.200100373,-0.431938801,3.84715653,-2.76012111,0.037654798,-0.0118014,0.517610821,-0.473147265,0.269763652,-1.203224558,0.075307989,-0.044507389,0.267451445,0,2.014552396,-0.689882986,0.041393835,-0.046356654,0.179908486,-0.221187164,0.482108846,-0.122318033,0.017543012,-0.044450869,0.071124815,-0.077864555,0.38369776,-2.306514684,0.063429159,-0.016573602,0.037050082,-0.485758307,4.266224286,-1.290307322,0.082841689,-0.045093267,0.524484298,-0.235588531,0.669300583,-3.140745035,0.068632563,-0.03681896,0.300320304,-0.289328387,0.911845917,-1.666515119,0.045061456,-0.006339672,0.052856517,-0.411360105,0
49,1.443882626,-0.337252521,0.03997169,-0.022768013,0.288797851,-0.045253123,0.788444381,-0.789495543,0.046467831,-0.03409187,0.173982313,-0.128061279,2.91775907,-0.191234661,0.154633423,-0.104912098,0.37179998,-0.238059724,0.606936997,-1.679242608,0.044632545,-0.03256113,0.224706147,-0.173359252,1.601958242,-0.316759052,0.017834229,-0.148628258,0.245481306,-0.383958401,1.360817235,-0.55846498,0.029714591,-0.048697274,0.200298473,-0.121918753,0.681572194,-0.690731465,0.023727338,-0.021991678,0.122584018,-0.091275622,1.32361382,-0.104951491,0.025261484,-0.014167401,0.192246008,-0.05852876,0.930944402,-1.08096909,0.02843985,-0.0359115,0.125526928,-0.156878663,0.899213378,-0.225468161,0.027970321,-0.018900922,0.155496666,-0.066382879,0.989027397,-0.154476731,0.037395958,-0.01476249,0.132095387,-0.102628332,0.551299404,-0.620467862,0.041896851,-0.018221412,0.080062415,-0.121736413,0
50,0.204253657,-0.75349017,0.032742453,-0.007804463,0.05832879,-0.108130233,0.16563526,-0.377913298,0.023108433,-0.015249926,0.106543661,-0.017093766,0.696723603,-0.978034553,0.034040375,-0.042129062,0.107457715,-0.179800004,0.014533074,-0.491196373,0.029065581,-0.011518701,0.076811423,-0.068586178,0.970302915,-0.694418641,0.035051249,-0.007166852,0.098691081,-0.170224318,0.589917053,-0.460787811,0.018967802,-0.024603406,0.143546359,-0.059780048,1.94030639,-1.045041968,0.013195455,-0.063204271,0.369787409,-0.230276717,1.351055452,-0.258138116,0.02279838,-0.011036023,0.256961337,0,0.542877681,-0.601788933,0.008106372,-0.021996049,0.128982528,-0.059611877,0.599585596,-1.630287342,0.022787657,-0.057045241,0.364882229,-0.031650155,0.683202403,-0.588804597,0.009782478,-0.020466824,0.17558226,-0.03445236,0.557059223,-0.742780854,0.060267189,-0.018697106,0.316700289,-0.110372799,0
51,0.188322238,-0.548129299,0.02012475,-0.027847267,0.024382948,-0.117838166,0.795469139,-0.108336465,0.016361249,-0.034945223,0.002972156,-0.214567339,0.309324188,-0.171456493,0.040676176,-0.000972986,0.283997557,0,0.362098664,-0.48263784,0.018621728,-0.033406014,0,-0.224843207,0.387683384,-0.242490506,0.051792546,-0.070228179,0,-0.241761985,0.741084244,-0.15817187,0.054382258,-0.013601729,0.508430894,0,0.38951728,-0.419225847,0.003404899,-0.013184222,0.094919285,-0.044714856,0.306458251,-0.129254869,0.006605662,-0.014422045,0.062523783,-0.017955182,0.314114156,-0.085342671,0.007527556,-0.014752544,0.063393228,-0.008417856,0.175425315,-0.887291597,0.009084346,-0.019746187,0.101032453,-0.072663244,0.283598117,-0.705435856,0.006130656,-0.019130225,0.071957904,-0.08521756,0.545927259,-0.167355184,0.007467778,-0.017935804,0.084152424,-0.04389126,0
52,0.214447597,-0.169680497,0.024223949,-0.009414777,0.030210064,-0.067147488,0.93024634,-0.608659028,0.074395991,-0.05170586,0,-0.591930777,0.388647806,-0.225616549,0.071111194,-0.037100772,0,-0.547118449,0.331222314,-0.455526867,0.020607745,-0.08258958,0,-0.544380976,0.098323836,-0.121495439,0.026453022,-0.011276856,0.024890657,-0.056052872,0.6305633,-0.105330653,0.048891893,-0.057309541,0,-0.575378237,1.667288757,-0.651590997,0.024746458,-0.038140669,0.313976262,-0.146669566,0.126880709,-0.080193756,0.026516132,-0.008750149,0.026573604,-0.074495195,0.313648606,-0.139988731,0.024501816,-0.00968316,0.062214865,-0.063100878,0.316937038,-0.178633139,0.022492805,-0.009282329,0.052707749,-0.070349479,0.259915393,-0.301344619,0.017704283,-0.008974766,0.043165348,-0.068711413,0.901918489,-0.137074969,0.043898235,-0.028356962,0.126469228,-0.069786648,0
53,0.666824323,-0.781174594,0.055979171,-0.02460078,0.140680014,-0.139625651,0.435633379,-0.737657642,0,-0.050623147,0,-0.410321668,0.110105737,-0.689161797,0,-0.058672071,0.06685779,-0.221003533,0.545042641,-0.179359231,0.027389074,-0.068347573,0,-0.435907413,0.468987802,-0.229059272,0.064645424,-0.08163299,0.154412654,-0.101174809,0.248377621,-0.74088689,0,-0.048403667,0,-0.343954941,0.45080212,-0.411466422,0.007803385,-0.057673174,0.003450188,-0.292133456,0.326134687,-1.239736218,0.154243021,-0.06282035,0.398387366,-0.038109289,0.048391926,-0.716972884,0.010189934,-0.006174351,0.012512649,-0.100944119,0.719078214,-0.473330562,0.036873167,-0.06019626,0,-0.494028363,0.535160895,-0.614029252,0.023101801,-0.006515058,0.10117347,-0.12363981,0.995651493,-0.341094226,0.034742013,-0.057533881,0,-0.447781334,0
54,1.686571243,-0.002623546,0.022964427,-0.005961796,0.178855537,-0.106067401,1.195618538,-0.213761279,0.025517479,-0.020599689,0.166837895,-0.102534541,0.134299192,-0.728919044,0.082604475,-0.062697655,0.384942353,0,0.805689301,-0.153140697,0.092186599,0,0.152966458,-0.4796342,0.329412601,-0.617436249,0.015325577,-0.011596874,0.082883827,-0.052814316,0.412565761,-0.325858391,0.027500639,-0.02476538,0.048215868,-0.105612427,0.416657341,-0.160182114,0.046446364,-0.010114443,0.156276301,-0.074223778,0.999224139,-0.074417142,0.020209753,-0.014303163,0.077669124,-0.094067162,1.050130817,-0.242789399,0.020527649,-0.012174488,0.108425507,-0.113745031,2.1508549,-0.210228235,0.13099814,-0.173831122,0.415109122,-0.124959989,2.802062852,-1.900991531,0.082658949,-0.032012099,0.335216444,-0.418248399,1.299837931,-0.677808827,0.030451704,-0.016104342,0.167596605,-0.140923282,0
55,1.197226114,-0.601619853,0.132598371,-0.1288371,0.526592609,0,0.39428653,-0.197143265,0.06690324,-0.01926287,0.357272549,0,0.505421343,-2.332285583,0.026692636,-0.014333646,0.171682716,-0.251237581,1.000193678,-0.360852966,0.086657485,-0.079036465,0.453272002,0,3.018387257,-1.259558157,0.110570497,-0.176131843,0.632602427,-0.107298837,1.103673233,-0.244914326,0.065010932,-0.027352709,0.304635083,-0.079844256,0.878539099,-0.269175121,0.025760026,-0.040736178,0.133872642,-0.058987195,0.404025037,-0.676864314,0.012746874,-0.041003038,0,-0.251564845,0.277048185,-0.393029904,0.012384151,-0.018189421,0.179049326,0,0.51110011,-0.679134628,0.153080353,-0.220653845,0.405569383,-0.149822248,0.608398576,-0.411197591,0.154213911,-0.199974435,0.37632502,-0.177287818,0.67423466,-2.632377681,0.094585782,-0.094379791,0.250796235,-0.341691822,0
56,0.982067267,-1.059048501,0.009000415,-0.038398137,0.016724412,-0.358227648,0.944210866,-1.195623765,0.006119831,-0.020243886,0.0758443,-0.261684093,1.107909442,-0.89378781,0.010432978,-0.050658364,0.111188657,-0.210124349,0.964927917,-1.363522913,0.003440038,-0.032978878,0.02951709,-0.368093412,0.889696756,-0.805626088,0.019084272,-0.041026286,0.031275047,-0.343310789,0.218529566,-1.489539397,0.006952163,-0.010874766,0.129897443,-0.111435141,0.733399958,-1.339287242,0.003951679,-0.029616522,0.026819011,-0.308387867,0.426180561,-0.702631474,0.039367538,-0.026829016,0.047843771,-0.165340577,0.224552122,-0.175268504,0.073410987,-0.019705575,0.070194788,-0.106016986,0.655648943,-0.287264655,0.047758846,-0.038333531,0.141177983,-0.043386294,0.223535157,-0.393924753,0.032250186,-0.032287433,0.092006603,-0.025521761,0.566806426,-2.09493451,0.037355505,-0.020739009,0.023643079,-0.418519335,0
57,1.080785714,-1.592176519,0.02117216,-0.058257139,0.359983088,-0.121327669,0.373917867,-1.689323721,0.058889458,-0.092076326,0.238099957,-0.157215984,0.361153843,-2.120219403,0.065439434,-0.090297286,0.286292136,-0.217315479,0.433378288,-2.106946317,0.049079862,-0.063651785,0.434999122,-0.107969002,1.287598858,-0.236268233,0.064555648,-0.103675873,0.336140274,-0.29979863,1.060843334,-1.065826234,0.076672152,-0.112785983,0.251631232,-0.222424619,1.176413286,-0.708265956,0.019365988,-0.040911004,0.176621359,-0.186956169,0.316612881,-3.237762495,0.008963036,-0.012509999,0.321218376,-0.138055802,0.519521227,-1.963784029,0.013433941,-0.011596554,0.260231571,-0.070400121,0.171151029,-1.61462882,0.011483208,-0.015601402,0.212454461,-0.055856676,0.194960065,-1.151118875,0.011473545,-0.010685719,0.153977695,-0.057438706,0.130261027,-1.609290305,0.015172736,-0.007203145,0.205122487,-0.065668561,0
58,0.113688978,-0.050501562,0.03942916,-0.049397981,0.212677325,0,0.03674566,-0.089565444,0.052916331,-0.042707205,0.220238431,0,0.854248787,-0.331942682,0.107841549,-0.035441631,0.343397846,-0.056615176,0.161508105,-0.163834501,0.058694583,-0.027634888,0.110710974,-0.16489545,0.075579902,-1.058092874,0.024407808,-0.064885973,0.21823204,-0.085543295,0.020714814,-0.132481445,0.072100133,-0.043783549,0.229876644,0,0.112811565,-0.216611303,0.059215902,-0.006743955,0.109359609,-0.195910468,1.387506954,-0.233568906,0.026506566,-0.01159103,0.132902758,-0.143047167,0.143269159,-0.187717596,0.024558844,-0.036364642,0.058027542,-0.042296936,0.097255932,-0.100677146,0.093440861,-0.0834053,0,-0.22332842,0.227854026,-0.022503276,0.023430326,-0.037410368,0.113988561,0,0.120491468,-0.148308613,0.017335383,-0.022570506,0.084704677,0,0
59,0.719329399,-0.263896861,0.095390303,-0.024525187,0.281876066,-0.088414063,0.547187487,-0.360918776,0.078433597,-0.066066991,0.144273288,-0.139926479,2.077498912,-0.026378292,0.053158653,-0.099868026,0.230690198,-0.2201499,0,-1.252804236,0.061539865,-0.028336508,0,-0.390219042,0.570383518,-0.451358033,0.01398285,-0.009989509,0,-0.173604235,0.95076494,-0.417501838,0.068435014,-0.078169129,0.15138835,-0.213605352,0.428413082,-2.939114523,0.052660893,-0.054378512,0.280028115,-0.262458765,0.855844263,-1.332474573,0.026744991,-0.05057035,0.172380766,-0.24642676,1.270053873,-0.783755754,0.093261971,-0.057381916,0.29855397,-0.145853462,0.331194629,-0.7999682,0.086746032,-0.057223464,0.164628303,-0.14955753,1.685056622,-1.049002052,0.076732636,-0.065182189,0.326439638,-0.178849556,1.009920917,-0.805231308,0.082960519,-0.064436184,0.247913177,-0.151196373,0
60,0.60279654,-0.345064168,0.027200997,-0.034527515,0.07481235,-0.100170033,0.685401059,-0.469019367,0.015891458,-0.025587897,0.034967426,-0.139365866,0.574143634,-1.527890433,0.04367069,-0.021537102,0.11455789,-0.273830753,1.123979535,-0.215280094,0.091103518,0,0.041288821,-0.635466226,0.74423828,-0.814687927,0.028309461,-0.023922501,0.083636949,-0.168385952,0.35494812,-1.328350211,0.035621594,-0.050016938,0,-0.356404723,0.363384421,-0.617963141,0.088975267,-0.038657389,0.260898402,0,0.813413433,-1.390141246,0.027996392,-0.052635584,0,-0.496339023,0.252715766,-0.083511304,0.013840067,-0.014695964,0.033048795,-0.053035927,0.583409765,-0.019670356,0.009218428,-0.021276524,0.076250908,-0.037324192,0.275649817,-0.554860675,0.01977929,-0.037726745,0.021622394,-0.141787,0.224824354,-0.245693197,0.090147905,-0.052152378,0.204635268,-0.051971436,0
61,0.45936377,-0.219432108,0.024897592,-0.0098611,0.049838304,-0.091380582,0.361207548,-0.265947967,0.019072906,-0.012969932,0.0656835,-0.044364147,0.609969282,-0.288772803,0.037627616,-0.085242693,0.03963652,-0.217944192,0.250304921,-1.429363003,0.019970934,-0.012900694,0.048695639,-0.214775941,0.212871455,-0.267039253,0.02290791,-0.003250743,0.036938926,-0.101367004,0.845446012,-0.405463832,0.082365742,-0.052608396,0.372682452,-0.027131969,1.380521019,-1.409178497,0.016547652,-0.045402785,0.461411433,-0.077327817,0.102106098,-0.25788586,0.012102933,-0.013772141,0.07154525,-0.013065399,0.114750157,-0.143708002,0.016692756,-0.016422857,0.044488544,-0.028554656,0.220407856,-0.275178703,0.018848173,-0.013391841,0.045810243,-0.0513697,0.20841252,-0.296251393,0.020794263,-0.013057611,0.044471164,-0.068960651,0.249101831,-0.29365609,0.020972948,-0.012098682,0.054645432,-0.047698838,0
62,3.658787847,-0.723213237,0.035945033,-0.065948752,0.61287122,-0.103478512,0.266206405,-0.975781553,0.051953041,-0.039073484,0.163057652,-0.095264814,2.17986801,-0.711524624,0.078355265,-0.068285884,0.143145062,-0.420363124,0.739496752,-0.979479008,0.059339674,-0.026926589,0.212204081,-0.116314004,2.114428709,-0.339635636,0.027566359,-0.053110198,0.457280965,0,0.662917418,-1.895841297,0.029883539,-0.068860008,0.144637494,-0.35678384,1.077050274,-1.592670783,0.040042259,-0.068348285,0.129201987,-0.446311396,0.276972634,-0.149484812,0.043923537,-0.031325199,0.024498607,-0.083822163,0.33079587,-0.18567541,0.024390624,-0.03394932,0.007094935,-0.100228748,0.335708421,-0.14606206,0.02305066,-0.033683039,0.001124543,-0.100763182,3.752547773,-0.681128171,0.044647611,-0.06489279,0.620618871,-0.116301895,2.720780328,-0.76209799,0.018834541,-0.056723569,0.54121109,-0.025048394,0
63,0.04867073,-0.278415968,0.08847058,-0.08788606,0.017961197,-0.348844933,1.892070301,-0.499162492,0.03462362,-0.040742712,0.32577991,-0.081442038,0.241988699,-2.721490253,0.022811321,-0.049921383,0.334722717,-0.162823859,2.33279671,-0.008058145,0.000596387,-0.029442095,0.358179195,-0.064894824,1.37844589,-1.915431389,0.019366668,-0.017878848,0.31417438,-0.159831132,2.071879075,-0.281165757,0.039205144,-0.049108026,0.32653391,-0.063868618,0.950719988,-0.410624953,0.014963719,-0.03662959,0.202219927,-0.109934802,0.439678361,-2.041669506,0.019503667,-0.042822281,0.28378813,-0.098543474,0.393675313,-1.430214163,0.017859514,-0.045290783,0.275134438,-0.041361317,0.719152878,-0.957890454,0.029580476,-0.057580284,0.369453997,0,1.252051945,-2.930500799,0.028176235,-0.045986441,0.551659406,-0.058287148,1.563179414,-0.741729869,0.02963612,-0.033674079,0.261330048,-0.072210455,0
64,0.201916121,-0.442439796,0.027440264,-0.018537651,0.020588634,-0.124290365,0.641485269,-0.105775816,0.032604445,-0.019028647,0.129545262,-0.055163366,1.591276806,-1.444583988,0.020962017,-0.04191795,0.10581159,-0.441124205,1.044464033,-0.449569421,0.094328114,-0.005829595,0.16514787,-0.432028391,0.18828382,-0.310832973,0.013534124,-0.022698523,0.040463373,-0.075601513,1.632867378,-1.068470034,0.071254223,0,0.295095732,-0.364230786,2.909374333,-0.647367165,0.015002522,-0.049245394,0.311860865,-0.223206463,0.33705006,-0.21376037,0.022745933,-0.012839573,0.076762894,-0.043176126,1.816221529,-1.589197286,0.018613913,-0.016952959,0.347114198,-0.093640193,3.995844426,-0.724257557,0.031951654,-0.054298991,0.531158338,-0.185887709,0.513925858,-1.548816918,0.016945884,-0.050433526,0.361616074,-0.065200771,3.039965191,-1.107016543,0.027876561,-0.076026319,0.561940347,-0.210392698,0
65,0.237244989,-0.144715512,0.131908097,-0.097261093,0.494581206,0,1.273999402,-0.035047219,0.035656085,-0.08252722,0.216953387,-0.058968188,1.080085671,-0.32120475,0.04151088,-0.09240636,0.124136911,-0.159612261,0.106801573,-0.207329499,0.011513828,-0.012233161,0.078314204,0,0.164370579,-0.587866607,0.04887302,-0.105112118,0.027942467,-0.390419759,1.272141767,-0.075440053,0.036983108,-0.08736072,0.166595381,-0.106058829,0.502290008,-1.43684597,0.057073171,-0.124628868,0.007184099,-0.569802579,0.148032064,-0.036497974,0.01784282,-0.004212987,0.07506003,-0.019468191,0.196949066,-0.274384839,0.035830514,-0.008149824,0.103126627,-0.063788975,1.536378494,-0.277076104,0.072745496,-0.091427247,0.461309578,0,1.42080341,-0.087363353,0.079785933,-0.094425277,0.334473302,-0.006911358,1.100584968,-0.168299728,0.065083779,-0.085080526,0.21237215,-0.059446712,0
66,2.117411016,-1.106940413,0.035954928,-0.031468653,0.317144825,-0.142784706,1.651343216,-0.287084876,0.042790385,-0.006687847,0.2625847,-0.04894366,0.885300793,-0.706657568,0.036047274,-0.02484407,0.177412683,-0.082534843,1.224687222,-1.102381344,0.05172914,-0.02931931,0.136173473,-0.341518499,1.852461661,-0.677017152,0.021014553,-0.01296906,0.333701021,-0.015711418,0.689895962,-0.654089164,0.044440348,-0.010078408,0.243476975,-0.030898258,0.759602026,-1.114722475,0.030596945,-0.03385396,0.277238187,-0.108685611,0.687078509,-0.756154618,0.014594863,-0.015704084,0.040501655,-0.170410753,0.174737882,-0.2210739,0.011950166,-0.009333044,0.019927619,-0.05090089,0.190172449,-0.192636372,0.007307874,-0.004652461,0.020976933,-0.047826912,1.063759808,-0.623664537,0.04197432,-0.005734646,0.274354519,-0.029337494,0.210581134,-0.392142841,0.044829947,-0.005605992,0.183711094,0,0
67,0.371299483,-0.156461732,0.056720408,-0.022145134,0.085445057,-0.057075405,0.362581256,-0.409193512,0.046271453,-0.035788528,0.075264669,-0.084321444,4.004928177,-0.538149904,0.09394752,-0.101964946,0.620841791,-0.103737612,0.484222902,-0.302270695,0.043196888,-0.027915599,0.062955269,-0.077547254,0.467276781,-0.293714638,0.048626041,-0.034069997,0.079026364,-0.087268364,0.432054137,-0.310011553,0.040456598,-0.02365472,0.048260834,-0.110824632,0.96894303,-1.369540023,0.02245926,-0.040233793,0.053119036,-0.313974509,1.749696502,-1.32105256,0.034024464,-0.038893628,0.430267473,-0.026969619,0.28298252,-0.460988432,0.018594717,-0.010451204,0.063701257,-0.081008077,0.374449975,-2.765575609,0.018296923,-0.02417817,0.217721813,-0.208983733,0.058160874,-0.71617584,0.018904937,-0.013976636,0.008805463,-0.132335613,0.142458601,-0.634255651,0.029438859,-0.011357242,0.033121025,-0.125646169,0
68,4.427073336,-0.343494221,0.083075768,-0.011235902,0.699159938,-0.09297135,4.130509026,-0.072112993,0.080007119,-0.011052271,0.648247826,-0.035529782,1.182938635,-0.789526867,0.022000918,-0.027205969,0.191390183,-0.109439781,5.076793887,-0.125351847,0.067605964,-0.136579463,0.795849975,-0.183919711,0.509367115,-1.26411212,0.06380892,-0.053453535,0.422211063,0,3.913151452,-0.085793803,0.076514961,-0.016037934,0.612690799,-0.027794795,2.531316031,-1.493897585,0.058747839,-0.051590724,0.474617959,-0.233829191,0.657811019,-0.424882986,0.032577181,-0.010370842,0.214201685,-0.021118651,0.318152276,-0.389578505,0.016527261,-0.013848173,0.080933425,-0.056246505,0.418379122,-1.013352228,0.018949761,-0.00946885,0.047506116,-0.194369949,1.558641891,-1.620552017,0.088166788,-0.007591397,0.455528907,-0.129980683,3.132270462,-1.154202231,0.084584728,-0.022421208,0.620776812,-0.050504644,0
69,1.112045684,-0.503575443,0.062315004,-0.045934462,0.163932079,-0.152438973,1.239690272,-1.997681911,0.032699184,-0.041359306,0.041026069,-0.418176699,0.409096082,-0.285889475,0.016813269,-0.046108156,0,-0.491869226,0.391794128,-0.15870674,0.039846978,-0.096393914,0,-0.322480588,0.972247458,-0.318448902,0.018289552,-0.091034117,0.178742806,-0.122595773,3.018851443,-0.102372184,0.021615907,-0.04417323,0,-0.455101179,0.233554464,-4.545387871,0.056507786,-0.060238658,0.058351659,-0.610347401,0.159328448,-0.593647794,0.017007406,-0.023587562,0.063674068,-0.07383737,0.293375817,-0.148563405,0.011457878,-0.01905869,0.036346146,-0.042467581,0.119731725,-0.138807404,0.008625668,-0.005234065,0.024468289,-0.039401487,0.309890011,-0.319741568,0.014894235,-0.016602721,0.058598565,-0.061689576,0.627644027,-0.11154343,0.035957109,-0.026475827,0.076112277,-0.070845836,0
70,0.8455395,-0.410881008,0.026979822,-0.05129903,0.159852147,-0.168178457,0.532865044,-0.137783052,0.004640298,-0.009274523,0.050460492,-0.046590591,1.422443994,-0.325595166,0.026264688,-0.027075916,0.213031558,-0.054479175,0.408513096,-0.208997161,0.016152132,-0.026256218,0.059737721,-0.080400599,0.433938749,-0.350009868,0.032480643,-0.047873835,0.124210623,-0.067770182,0.654373754,-0.634468202,0.010441592,-0.010237389,0.090383149,-0.08509185,1.650753586,-0.006692741,0.011836385,-0.023284023,0.127095255,-0.167951935,0.991556666,-2.283701136,0.035435355,-0.007258655,0.182632647,-0.346289759,0.388649369,-0.277620503,0.009013988,-0.007165718,0.064040323,-0.046485339,0.802528994,-1.685864226,0.136641298,-0.096242493,0.347949741,-0.117848746,0.128166433,-0.903715662,0.107305771,-0.101811418,0.197399119,-0.142882388,0.873742242,-1.331252758,0.028485543,-0.051135761,0.359333124,-0.098521494,0
71,0.457532301,-1.086693783,0.009986317,-0.013106652,0.102844063,-0.130589323,0.357328689,-0.516955702,0.017551716,-0.018711293,0.071447228,-0.053811629,0.408386095,-0.542154769,0.139829557,-0.06610978,0.28804934,-0.063125423,0.863675018,-0.191104745,0.069374572,-0.013051544,0,-0.459777099,0.518799769,-0.149349286,0.050485973,-0.007637507,0.002443964,-0.313010572,0.196952804,-0.299832986,0.018009498,-0.021753753,0.060321407,-0.059636785,0.553982181,-1.601024228,0.069157179,-0.030848716,0.069065427,-0.375261185,0.807578642,-1.60066718,0.023880068,-0.069420898,0.054136658,-0.363177673,0.991864803,-1.074403006,0.033483286,-0.105426693,0,-0.440031807,0.417291223,-1.191783925,0.046998014,-0.068442763,0,-0.473083683,0.401186808,-0.618194426,0.019328836,-0.014087619,0.148374958,-0.039643284,0.515864329,-0.073063348,0.018422906,-0.015951451,0.155111577,0,0
72,0.63717046,-0.911199061,0.061133152,-0.055737948,0.177753568,-0.188590224,1.582589912,-0.509576294,0.060743374,-0.056438428,0.209383895,-0.22532082,1.307945819,-0.798259843,0.024056706,-0.039489295,0.097202452,-0.229529011,0.160777564,-2.179918053,0.053605625,-0.099311212,0.037211695,-0.414528794,1.240769049,-0.796816708,0.060394767,-0.055669068,0.191655434,-0.191791073,2.293785766,-0.401768426,0.085370509,-0.057706058,0.236214369,-0.211441504,0.590851362,-3.19356824,0.084115499,-0.076563639,0.162378906,-0.408182731,1.715513487,-2.387663195,0.03113578,-0.07043175,0.262292512,-0.372033994,1.220096573,-0.639715819,0.04011519,-0.018496586,0.226336374,-0.15218805,1.658559539,-0.305154054,0.086500022,-0.077014127,0.303462927,-0.160650634,1.372390028,-0.523303984,0.076099568,-0.066457339,0.236202425,-0.107030078,0.830883554,-0.056598261,0.061934499,-0.051054166,0.145728146,-0.072141134,0
73,1.28115485,-0.190763435,0.013943536,-0.012397098,0.162169228,-0.057256882,0.164561678,-0.2129443,0.023898557,-0.016347887,0.07399335,-0.004032345,0.178050281,-0.107436332,0.011182852,-0.021109223,0.038998539,-0.050917394,1.220216671,-0.143926895,0.042017546,-0.072010195,0.296218734,-0.089467262,1.442514276,-0.03987526,0.011455801,-0.008392231,0.185377825,-0.013892915,0.097491061,-0.085831783,0.020365209,-0.01756693,0.043642216,-0.007248226,0.295438543,-0.25323478,0.007643034,-0.005777063,0.077332259,-0.010373819,0.832094301,-0.123614965,0.006742204,-0.009189326,0.1133849,-0.033987003,1.467470544,-0.089491871,0.007996362,-0.012424628,0.180192179,-0.047964166,0.426948628,-0.868758299,0.022518137,-0.023154036,0.15253377,-0.025241949,0.161100216,-0.49721123,0.025839752,-0.024521898,0.131927477,0,0.142326914,-0.367038433,0.023780425,-0.021189042,0.10448123,0,0
74,0.226924315,-0.12268579,0.066508179,-0.042765311,0.084963052,-0.134893369,1.855067617,-0.250962786,0.045887919,-0.058159377,0.191401867,-0.219764193,2.127785107,-0.212767961,0.015784316,-0.072244638,0.317234491,-0.15795715,0.260992371,-0.194606597,0.015758557,-0.0198482,0,-0.105864781,0.104722995,-0.193098216,0.054994455,-0.039078039,0.11689381,-0.115781604,1.190342584,-0.75067704,0.022587368,-0.014546857,0.110750005,-0.169187065,2.942326803,-0.476207743,0.013437178,-0.026479918,0.323984722,-0.184813661,2.931146544,-0.070612351,0.032491485,-0.031325048,0.293714434,-0.197641047,1.915456786,-0.225163731,0.029265882,-0.04183441,0.217160745,-0.159570789,1.386495158,-0.066261595,0.047777605,-0.054240473,0.169827515,-0.136309056,0.113353502,-0.152329497,0.059018356,-0.062190827,0.084914166,-0.081804524,0.081648206,-0.303050585,0.070872295,-0.054824359,0.078761358,-0.133686426,0
75,2.92298991,-0.112678552,0.000768008,-0.046023444,0.015876763,-0.489590221,0,-2.179021105,0.010603932,-0.043523293,0,-0.343391584,2.322877964,-0.080506845,0.01104653,-0.077665899,0.000996246,-0.374822599,1.299037422,-0.415195595,0.021574721,-0.043100826,0,-0.323846065,2.525045926,-0.130323165,0.019056314,-0.07554551,0.022041628,-0.388841787,2.235952174,-0.025332818,0.010723023,-0.043550934,0.000873625,-0.355866322,5.130694564,-0.965781025,0.036666756,-0.107683758,0.571059003,-0.402789555,2.377193292,-0.327228354,0.015995799,-0.052874707,0.001509234,-0.482146567,0.32980125,-0.067596936,0.011502314,-0.034954945,0.043873214,-0.052011976,0.279476731,-0.504779768,0.01840095,-0.013619787,0.044568948,-0.103724296,0.120166796,-0.113347995,0.033981426,-0.010940081,0,-0.142164997,1.541893151,-0.258769185,0.019059066,-0.027095164,0,-0.296564024,0
76,0.129900416,-0.093513013,0.026005449,-0.013998108,0.08284614,-0.007127586,0.128013162,-0.054600452,0.027387661,-0.018519517,0.04655511,-0.020967841,0.187243253,-0.07033184,0.016194268,-0.036593155,0.061642865,-0.034368278,0.305471078,-0.038793576,0.024041925,-0.008027397,0.114263125,-0.020393296,0.131711361,-0.025366756,0.009819627,-0.026133127,0.022765982,-0.048501565,0.178047009,-0.113086336,0.036225308,-0.028297427,0.079172393,-0.013438072,0.975833837,-0.384557799,0.015095882,-0.042084054,0.249220968,-0.067278947,1.34030017,-0.19817762,0.015118213,-0.053717088,0.308991706,-0.036190348,0.806708886,-0.892982821,0.026655037,-0.061458654,0.301556194,-0.075171574,0.052066579,-2.01330708,0.009328674,-0.022526211,0.129380636,-0.197132271,0.26046957,-0.17922841,0.033369768,-0.017247907,0.023610684,-0.066422953,0.714261256,-1.657454329,0.021658251,-0.044924451,0.202062219,-0.272509843,0
77,1.661941417,-0.424171219,0.066770843,-0.047145225,0.115898807,-0.291397531,1.150227133,-0.115666431,0.073424513,-0.049039974,0.103531137,-0.265797402,0.812756918,-0.467405059,0.065693659,-0.109428181,0.215492914,-0.142482122,1.408369009,-0.622340457,0.076312527,-0.048422642,0.160035957,-0.245966018,0.41660939,-0.868627627,0.01875413,-0.036143169,0.195749381,-0.044016068,0.882178922,-0.572649403,0.063499428,-0.050424666,0.11588527,-0.30094018,1.668924212,-2.219035357,0.047205197,-0.065488668,0.291722226,-0.320273,1.933877068,-0.201268349,0.031409992,-0.016124925,0.327082481,-0.051797295,1.167845493,-0.833508042,0.035953314,-0.079222788,0.339910861,-0.168286977,1.284357081,-1.215192753,0.084208216,-0.05482726,0.143653368,-0.419248788,1.838891521,-0.195326469,0.049374391,-0.066824426,0.25721761,-0.232433748,0.654654554,-1.665777211,0.01572763,-0.06679261,0.408956643,-0.037538467,0
78,3.08120227,-0.093789624,0.006829008,-0.004281818,0.37791293,-0.033769177,2.6819127,-0.36352379,0.01963708,-0.026811108,0.317492613,-0.141748932,1.716288218,-2.293889841,0.02091631,-0.008920732,0.103085763,-0.456787503,1.975591829,-0.326797543,0.025612742,-0.031596057,0.267713549,-0.171813471,0.180289704,-2.665168247,0.029117373,-0.035579453,0.199903336,-0.319407966,4.334324646,0,0.019664986,-0.001432595,0.12138876,-0.481504479,0.428162773,-0.308092696,0.010663822,-0.007193017,0.085080618,-0.023878356,3.390473135,-0.291879985,0.020141769,-0.00835071,0.429630532,-0.060729125,2.995717794,-0.263580931,0.009954588,-0.006208234,0.385669015,-0.043328946,1.24349095,-0.077820294,0.006538991,-0.04535398,0.224061978,-0.041935997,1.009662047,-0.007363219,0.02523748,-0.042591069,0.203271535,-0.0304436,0.409760854,-0.564545448,0.022945782,-0.041332701,0.202387891,-0.024558422,0
79,0.182887792,-0.07023723,0.017151795,-0.003438926,0.072026329,-0.017348859,0.118920898,-0.030961307,0.02976549,-0.025471526,0.053160817,-0.045760788,0.149663688,-0.031581766,0.026208558,-0.028970969,0.031700097,-0.068217567,0.237455745,-0.021082729,0.020144336,-0.012051654,0,-0.155401498,0.08052479,-0.068114489,0.011676809,-0.015966376,0,-0.080417974,0.115435851,-0.014708788,0.028028688,-0.02700716,0.039069426,-0.055874552,0.140229742,-0.029838098,0.006034795,-0.002693824,0.004829049,-0.035245971,0.188054538,-0.078531994,0.016777022,-0.040842642,0.006329206,-0.1844469,0.208468254,-0.052303479,0.009411772,-0.002234699,0.069786938,-0.001306662,0.290027082,-0.020071763,0.016782241,-0.002322253,0.091474323,-0.005185713,0.099195211,-0.132873865,0.028492827,-0.023140816,0.069945236,-0.030429934,0.326568874,-0.166073739,0.028288552,-0.023613909,0.083778091,-0.064270024,0
80,0.139513863,-0.351191735,0.006296969,-0.001684125,0.012149676,-0.07844798,0.099137791,-0.364174366,0.014417717,-0.004971926,0.029909334,-0.071067478,0.198893125,-0.272284265,0.073754394,-0.09255006,0.136441441,-0.137527984,0.082618927,-0.614320783,0.010543708,-0.003409352,0.007988586,-0.114503028,1.778316078,-0.175876885,0.031472022,-0.04266722,0.199668267,-0.099542801,0.215315456,-0.297246684,0.017702514,-0.008425468,0.04807215,-0.056933083,1.083108349,-0.254382417,0.003005675,-0.025017368,0.145873138,-0.126563583,2.810948776,-0.079587206,0.0120844,-0.017979954,0.374249138,-0.029940895,0.334981153,-0.530415681,0.014264678,-0.002741397,0.060834241,-0.101982306,0.089933406,-0.398885196,0.01732808,-0.003022012,0.029559243,-0.085365322,0.476084496,-0.599914371,0.059575293,-0.090145423,0.21071332,-0.126039201,1.322136237,-0.719377371,0.031059849,-0.056281316,0.181479201,-0.192664978,0
81,0.527122964,-0.037246387,0.010278006,-0.015150769,0.110185209,-0.007476169,3.589653004,-0.232771119,0.014027777,-0.026838832,0.477460816,-0.048259823,0.338345106,-0.263571739,0.023510086,-0.016323579,0.048196444,-0.067037703,3.360784711,-1.525679342,0.006989795,-0.031506999,0.490144195,-0.213563369,0.736961703,-0.144911101,0.042290333,-0.032964099,0.11740883,-0.137082126,3.914208287,-0.257648783,0.041041432,-0.01538458,0.529567763,-0.057062806,0.616306363,-0.932687093,0.017047139,-0.024260265,0.109581719,-0.116176481,1.553835071,-0.231611747,0.03990151,-0.017630445,0.30653512,-0.033972528,0.967394407,-0.211217389,0.00479011,-0.010641707,0.136853896,-0.025424034,4.581326306,-0.302754115,0.05568888,-0.078059445,0.629603102,-0.052083633,0.670633793,-0.545250287,0.01412491,-0.011695711,0.091711547,-0.078517842,0.804597839,-0.056922673,0.009492445,-0.015436315,0.110823552,-0.040607835,0
82,0.655806055,-1.520019182,0.124082144,-0.043161151,0.302681062,-0.06365499,0.562218739,-0.411910396,0.075133536,-0.032828799,0.174057567,-0.017672059,0.908835352,-0.454417676,0.08795934,-0.043211927,0.081948642,-0.201041516,0.548931202,-1.392743723,0.040633558,-0.09733982,0.24786977,-0.396114018,0.568417781,-0.746534314,0.085483276,-0.048561826,0.231129754,-0.227032919,0.533033185,-0.498541139,0.085016834,-0.030152072,0.146764599,-0.08110288,2.811011347,-0.528797627,0.013541031,-0.063016941,0.441048881,-0.167787054,1.573251756,-1.905447295,0.047781103,-0.071692741,0.263441845,-0.291591324,0.96940619,-1.761405091,0.015328086,-0.017263193,0.505052729,0,0.496281525,-3.78315254,0.044386541,-0.071066801,0.496135421,-0.31352395,1.494620731,-0.53170439,0.066801953,-0.042722894,0.312323613,-0.051637565,2.019834167,-0.684545731,0.044565648,-0.0551792,0.281541274,-0.214597901,0
83,0.504004679,-0.67358017,0.024130134,-0.021801167,0.124637255,-0.080336816,1.066105756,-0.73860894,0.021775569,-0.011855437,0.067603572,-0.213979229,0.282750694,-1.060129391,0.035004979,-0.07060044,0.439878635,0,0.958384146,-0.16211504,0.053486678,-0.073064666,0.226217796,-0.072540709,0.627423298,-1.340388303,0.02754648,-0.066813597,0.277324645,-0.114970724,2.709107858,-2.42601027,0.122979279,-0.066102631,0.595633664,-0.13892918,3.249144089,-0.275353086,0.039584366,-0.058785102,0.489146369,-0.105840167,5.215183837,-0.443512015,0.043724883,-0.051212172,0.547297984,-0.282977227,0.90674366,-0.395447049,0.012310653,-0.019034027,0.146248345,-0.085005857,2.761299728,-0.528193737,0.035163128,-0.048258238,0.429260282,-0.036414213,2.492054816,-0.168499612,0.036791319,-0.05229051,0.320401153,-0.125088587,3.526032828,-0.254093565,0.024417954,-0.029093272,0.464845875,-0.064511694,0
84,1.483465793,-0.091318762,0.088476061,-0.086814832,0.241861103,-0.090167248,0.811302967,-0.059570802,0.022109558,-0.022329377,0.139851509,-0.022747326,1.57045308,-0.291675018,0.02485707,-0.034255365,0.270205134,0,0.921963169,-0.113249922,0.019091805,-0.02017674,0.135085087,-0.044993408,2.333990338,-0.219290156,0.054217615,-0.084493117,0.397240944,-0.088565652,0.956200908,-0.116749967,0.021500701,-0.026742085,0.167571035,-0.001356544,0.442170425,-0.628002986,0.013001271,-0.024036114,0.135894441,-0.054420611,0.711694318,-0.278981751,0.012520319,-0.014720868,0.162990088,0,0.452733215,-0.383472368,0.019925477,-0.015191554,0.117098713,-0.025305624,0,-0.888181576,0.013386921,-0.016727227,0.114452696,-0.032352778,0.420661098,-0.282224232,0.108124322,-0.104476915,0.180726134,-0.049273009,0.290661979,-0.329169397,0.095811925,-0.117258364,0.147819119,-0.152845293,0
85,0.313199217,-0.630342636,0.030356177,-0.017455726,0.11540814,-0.072763701,0.36057152,-0.360045681,0.036768732,-0.010579213,0.087691342,-0.071886182,0.71660949,-0.237511619,0.037477599,-0.009147411,0.107728974,-0.103670317,0.177830326,-0.557016564,0.033254876,-0.011415321,0.083091233,-0.090757662,3.725285684,-0.023480943,0.116837912,-0.02494631,0.259499186,-0.464646089,0.331193337,-0.496215296,0.037739301,-0.010224822,0.100098345,-0.077377422,0.116929006,-0.438771079,0.03417609,-0.01372902,0.034047818,-0.117429351,1.016701791,-0.80782641,0.01978884,-0.004355262,0.190368904,-0.08241623,0.535737818,-0.213167455,0.018143413,-0.006857818,0.109759103,-0.046386,0.527688959,-0.114749309,0.024910311,-0.010622778,0.108058191,-0.03498102,0.220213017,-0.068450257,0.028237886,-0.01122137,0.054464666,-0.056232049,0.263430885,-0.137400598,0.003758805,-0.00462173,0.036451804,-0.02568515,0
86,0.647357233,-0.695215578,0.05359825,-0.024012302,0.104805667,-0.135247239,0.881018854,-1.021866367,0.025858525,-0.030571909,0.104222857,-0.188749461,2.758745636,-0.567075855,0.019792333,-0.061301856,0.428184818,-0.026608866,1.427812242,-0.613171839,0.032358909,-0.037291863,0.201472672,-0.155492343,1.409454932,-1.917547246,0.01615184,-0.070974855,0.48296729,-0.08063623,0.483065705,-0.390480661,0.044008509,-0.047357077,0.05882956,-0.193215057,2.238546698,-1.370751701,0.05587845,-0.014975958,0.452681178,-0.200374154,1.222480204,-1.496999052,0.023987834,-0.028953578,0.179003895,-0.197535006,2.080435503,-1.510421806,0.023470894,-0.069459193,0.393445842,-0.201799033,2.178684693,-1.558988089,0.023371907,-0.070313282,0.410953318,-0.207926452,1.507258881,-0.753629441,0.07033208,-0.052801428,0.191787346,-0.137655196,2.098669865,-0.220019961,0.050093315,-0.043947575,0.206361096,-0.158671844,0
87,2.075687342,-0.968710221,0.009884703,-0.017563997,0.322469326,-0.090464498,0.816616466,-1.643020832,0.00860045,-0.019250904,0.344290283,-7.90E-05,1.74907761,-1.792929428,0.021594991,-0.01846247,0.516889698,0,1.058363119,-1.222628124,0.029131953,-0.029129577,0.244222847,-0.073889378,0.43405174,-2.576765612,0.037644646,-0.032546725,0.510565441,0,0.568831224,-1.997502861,0.015769885,-0.017523927,0.376955788,0,5.610381862,0,0.071979962,-0.076696798,0.276838552,-0.510388333,0.293177087,-1.72143455,0.006589933,-0.071980374,0.186182349,-0.322711778,2.741257012,-0.173571351,0.015718774,-0.017628269,0.30380094,-0.100129629,2.518081684,-0.657457461,0.012457263,-0.014832946,0.323552472,-0.097310655,2.715493081,-0.442841918,0.031103134,-0.012643931,0.366644372,-0.054106742,2.580369507,-0.528240482,0.030046046,-0.015583149,0.389925266,-0.037885321,0
88,1.438272684,-0.405750668,0.031553784,-0.051298109,0.272432441,-0.061452282,1.970856957,0,0.008020752,-0.11737157,0.31980784,-0.384208158,1.224779755,-1.13695568,0.042086665,-0.013144323,0.175126755,-0.241198298,0.992235847,-0.253365115,0.007306272,-0.080849631,0.086432391,-0.326080863,0.725333866,-1.1347597,0.024383671,-0.020668843,0.207931222,-0.118130766,0.595905117,-1.766169055,0.052130694,-0.017020924,0.176447173,-0.294617565,0.165365147,-0.952244726,0.042743271,-0.043088643,0.143800486,-0.098382156,0.207906322,-0.753081666,0.026130245,-0.072661234,0,-0.307495438,0.028479336,-1.045609158,0.029836644,-0.076655363,0,-0.364715905,0.363492588,-0.594335557,0.030088759,-0.073371524,0,-0.32827441,2.673703634,-0.391838395,0.068138644,-0.088744358,0.1955888,-0.296292067,0.582901915,-0.170361621,0.029881202,-0.023301491,0.125388723,-0.094062959,0
89,0.2140298,-0.815795455,0.043744462,-0.015139516,0.159394802,-0.005279809,0.624783174,-0.098696826,0.00710591,-0.018521985,0.148567786,-0.011888333,0.255309394,-0.15961543,0.007118487,-0.027865458,0.130597769,-0.012886671,0.550435546,-1.208102818,0.025162049,-0.050647322,0.196933148,-0.160907672,5.181762304,-0.468955485,0.020285954,-0.081746632,0.563358601,-0.25698944,0.524636282,-0.160802622,0.006903395,-0.021376684,0.152305622,-0.01189078,0.200368218,-0.793095478,0.001933918,-0.015323413,0.090786526,-0.068949942,1.062819532,-0.142182794,0.010831369,-0.002331085,0.162866024,-0.007756115,1.032989747,-0.134402967,0.007603586,-0.001884676,0.158163194,-0.007285514,0.728345282,-0.10723187,0.004786699,-0.020476662,0.168363735,-0.006769028,0.506394181,-0.368716198,0.00459251,-0.021155604,0.174596828,-0.007353283,0.711444021,-0.131159772,0.004796669,-0.021988122,0.169833549,-0.007671105,0
90,0.538652494,-2.894874972,0.040466814,-0.005156033,0.047744007,-0.495624122,0.969401787,-0.519729032,0.008692712,-0.009974155,0.24878789,0,0.520169463,-0.486850313,0.023128963,-0.055818821,0.233640431,-0.009188656,0.182459054,-2.727784536,0.042128768,-0.0087567,0.021776029,-0.475883175,0.170631791,-2.875864916,0.036391812,-0.012926962,0.023334644,-0.457513237,1.067851702,-0.612904826,0.011073269,-0.018568992,0.279307369,0,1.066332768,-0.65570097,0.002400862,-0.010712753,0.239934021,-0.016518446,4.118639645,-0.153261456,0.016970281,-0.052635052,0.26712854,-0.357514162,3.723997654,-0.089951228,0.01849676,-0.042691612,0.257915781,-0.296842269,3.592272317,-0.085777441,0.023433236,-0.040477204,0.250784687,-0.278523007,1.544269076,-0.968590623,0.020062184,-0.031562558,0.228800751,-0.169653598,2.018013981,-1.920727937,0.038494574,-0.016714574,0.118329951,-0.484459773,0
91,0.063583794,-0.198056988,0.010430744,-0.005272866,0.011067296,-0.035451639,0.442929144,-0.046529353,0.010320684,-0.002003178,0.058963341,-0.028238292,1.340135137,-0.059591092,0.018406278,-0.032112462,0.224081868,-0.056105209,2.768036798,-0.205718404,0.045974513,0,0.162663895,-0.311780444,0.213020634,-0.032363998,0.007675147,-0.005786516,0.023479088,-0.019651069,1.02222467,-0.305663503,0.00673699,-0.051549041,0.233311115,-0.026467638,0,-1.064732582,0.025422494,-0.028315695,0.061411749,-0.166501618,0.867943963,-0.909478865,0.079626439,-0.040601426,0.187949225,-0.288966388,1.908841574,-0.76797747,0.025167443,-0.039146984,0.30953395,-0.086726084,0.19225577,-0.33325772,0.017482622,-0.004393209,0.032960037,-0.078144925,1.388871016,-0.492021854,0.014325398,-0.041997216,0.249204706,-0.091991598,1.0143661,-0.398051321,0.010226729,-0.056752932,0.243696055,-0.050045482,0
92,0.058153757,-0.674526632,0.081577661,-0.013198104,0.478012608,0,1.099792924,-0.212548291,0.026410986,-0.011444983,0.170720465,-0.024337177,0.5558499,-0.259792881,0.001581408,-0.015313624,0.109223546,-0.020670771,0.782961898,-0.326441038,0.056376317,-0.003574465,0.163708624,-0.213303587,0.575262198,-0.403435423,0.011450575,-0.013382856,0.132767457,-0.022229129,0.81592244,-0.341496022,0.018936572,-0.011510612,0.143742888,-0.028201094,0.428078078,-0.052751706,0.03285502,-0.016064321,0.081907262,-0.089113277,0.258159949,-0.102096496,0.005482942,-0.001710935,0.049411904,-0.010016772,0.051168507,-0.070943238,0.003473896,-0.001295037,0.008792626,-0.012381315,2.464094974,-0.272097758,0.015781642,-0.009266559,0.322920573,-0.061875816,0.448001284,-0.584528903,0.035812867,-0.00901994,0.279912862,0,0.335816567,-0.142201393,0.023584781,-0.005100179,0.109417194,0,0
93,0.040240462,-0.242844262,0.103460794,-0.092694434,0.176929396,-0.064432487,0.47129708,-0.212263156,0.059398259,-0.049393667,0.249309913,-0.020494805,2.38892122,-0.339862404,0.094071752,-0.075982839,0.457666042,-0.050632703,1.045523798,-0.226910698,0.042849963,0,0.193228486,-0.192043458,0.11058197,-0.542984193,0.053378593,-0.14704222,0.138445025,-0.101107442,0.35135489,-0.282546228,0.067682645,-0.053451585,0.22663228,-0.033260225,1.281455886,-0.54798471,0.047101131,-0.029327148,0.231330887,-0.089906966,0.672469322,-0.248181483,0.035717513,-0.002207573,0.047164237,-0.196630047,1.495654185,-2.041250419,0.283596641,-0.143928985,0.421030267,-0.224597331,0.534254052,-0.417889324,0.143861033,-0.112771246,0.302337376,-0.067716475,0.253519942,-0.196472844,0.097846034,-0.097592765,0.152331183,-0.089636665,0.75110004,-1.50220008,0.067414463,-0.043809427,0.10657139,-0.287199734,0
94,0.924973626,-0.361068126,0.077218326,-0.098379863,0.242510208,-0.126237393,0.830180267,-0.416288481,0.069439111,-0.068266155,0.079830802,-0.188798122,0.59408525,-0.191892937,0.063516781,-0.062699126,0.093266663,-0.120384933,2.410236868,-0.819713297,0.071442789,-0.074089668,0.352969423,-0.315877679,0.885362796,-0.964092661,0.123571444,-0.059217964,0.30673104,-0.288641956,0.658158947,-0.208230631,0.06087435,-0.065042591,0.068660096,-0.152359276,2.057307016,-1.127960256,0.036570219,-0.022380101,0.375955231,-0.146673873,0,0,0,0,0,0,1.804296978,-1.25084301,0.030635216,-0.048734998,0.190407794,-0.258233143,1.191262759,-0.665413326,0.002564519,-0.022605849,0.267136911,0,1.492421027,-0.868405737,0.025341956,-0.05129322,0.277663124,-0.19816623,0,0,0,0,0,0,0
95,0.141554677,-0.368616376,0.07985475,-0.05142261,0.139103941,-0.113243639,0.418295547,-2.016655145,0.174772921,-0.067599192,0.265411363,-0.346865907,0.533955123,-0.909832494,0.04136872,-0.176737011,0.007300166,-0.337786394,1.008317322,-1.315818291,0.14300298,-0.081518526,0.305370953,-0.222605966,1.388113834,-0.476453638,0.126179102,-0.05386356,0.069861166,-0.252548492,0.34392801,-3.688164303,0.163358334,-0.04198457,0.350366862,-0.440640872,1.387561987,-1.405803626,0.07219753,-0.063511998,0.297347709,-0.207417395,3.270881748,-2.363975142,0.018859157,-0.043377898,0.370491279,-0.38594318,1.155769776,-0.408119737,0.101496428,-0.082650245,0.329789912,-0.14029301,0.36640595,-1.797163663,0.145142025,-0.112367121,0.319828118,-0.269090154,0.767191026,-0.129065469,0.11075975,-0.08467456,0.260489612,-0.115910386,0.622466591,-0.07015262,0.106444263,-0.071867681,0.25820398,-0.089048345,0
96,1.522820743,-2.834021459,0.026898371,-0.030165408,0.075904663,-0.499086502,1.26423721,-0.254780257,0.020843338,-0.016947871,0.197628288,-0.047076056,0.266795439,-0.390399499,0.018055361,-0.020169251,0.060072299,-0.055820156,0.199759042,-3.80969513,0.021987481,-0.03288501,0.0667036,-0.471270718,0.349774321,-0.652122192,0.017629894,-0.020832789,0.079019054,-0.127392272,0.773278228,-0.269134262,0.021084414,-0.018972288,0.120741174,-0.05661177,0.216505858,-2.948559048,0.03323056,-0.044626568,0.101418414,-0.403646118,0.635797991,-1.036412587,0.06064565,-0.020797978,0.080336796,-0.300114321,0.123704388,-0.333672692,0.008240286,-0.013863948,0.072567953,-0.019631299,0.389673659,-0.381478949,0.018144077,-0.00989602,0.075715365,-0.045171755,0.342187441,-0.684374882,0.017947838,-0.028813201,0.112513875,-0.050501839,2.230614521,-1.471691746,0.035318889,-0.041907436,0.318058973,-0.187294276,0
97,0.324071964,-0.26185649,0.018835075,-0.008503748,0.022457102,-0.126056915,0.38486927,-0.089216386,0.087400742,-0.053978671,0.136263792,-0.098089329,0.259277628,-0.618128023,0.039734981,-0.118451528,0,-0.264566696,0.08546797,-0.042733985,0.052742128,0,0,-0.298988228,0.720360605,-0.10392588,0.026053753,-0.000924456,0.0608954,-0.137998596,0.243318186,-0.486636373,0.051464075,-0.077394772,0.044159261,-0.148738686,2.862645095,-1.118534237,0.031436285,-0.079948013,0.407384097,-0.209872207,0.911992031,-1.74881241,0.015714825,-0.0221267,0.067549131,-0.294895687,0.265856327,-0.080505908,0.013675333,-0.005661596,0.020936707,-0.062681415,0.246588603,-0.13445158,0.012450594,-0.004192796,0.016510704,-0.07621543,0.296721712,-0.484589926,0.165681009,-0.125457983,0.256823401,-0.122447174,0.144435864,-0.543143364,0.089045601,-0.089087908,0.198300164,-0.148280275,0
98,0.587166279,-0.268901044,0.097211503,-0.103637253,0.106397643,-0.212822925,0.43752499,-0.363974233,0.05098333,-0.088948989,0.155454067,-0.133922938,0.621571457,-0.409868212,0.020438446,-0.079791107,0.136792994,-0.131136105,0.440478892,-0.785092202,0.068253925,-0.092445623,0.139218156,-0.20415571,1.402173071,-0.921592411,0.08782636,-0.007008981,0.104883104,-0.545859436,0.456271382,-0.306653635,0.039086447,-0.084937239,0.161417906,-0.125848308,0.449434597,0,0.010973579,-0.00273463,0.091421548,0,2.385549846,0,0,-0.016674077,0.349766942,0,2.34785904,0,0,-0.015942169,0.340465191,0,0.797412055,-0.781873038,0.091662651,-0.07792521,0.440654035,0,0.049254931,-0.369146823,0.095006132,-0.084667802,0.26950834,0,2.135578558,0,0,-0.016794973,0.316231843,0,0
99,0.589552132,-0.302093209,0.114622538,-0.015679157,0.077905546,-0.156271838,0.470272202,-0.30407674,0.050346122,-0.052638731,0.389362331,0,1.411412472,-0.212505662,0.032507301,-0.09438337,0.213417316,-0.122262271,0.561619825,-0.173214756,0.07951749,-0.044344135,0.225193553,-0.164408712,0.169001149,-0.681602734,0.010928717,-0.020843031,0.009741195,-0.137344447,0.657394088,-0.060102072,0.028411372,-0.055676183,0.312401329,0,0.439271399,-0.798881985,0.103212023,-0.023819864,0.279035789,-0.279108498,0.944600137,0,0.05679621,-0.114106971,0,-0.422214194,0.393768396,-0.87853476,0.009454874,-0.031209768,0.062119966,-0.132004596,0.76905086,-1.597153887,0.023942457,-0.026862808,0.179332906,-0.17177061,0.258165667,-3.836300425,0.119200927,-0.065707769,0.542040003,-0.058496436,0.350435631,-0.241056527,0.095158119,-0.061356289,0.440545103,0,0
100,0.212024819,-1.388828574,0.038553859,-0.028163699,0.258799402,-0.005668728,0.059201597,-2.373782859,0.029712829,-0.050799088,0.00720374,-0.368684638,0.258716769,-2.770606881,0.052404494,-0.055518023,0.09729717,-0.43220307,0.096382998,-1.413138118,0.041691975,-0.037071124,0.007668736,-0.238419573,0.249981258,-3.271263664,0.059329813,-0.058199461,0.121898897,-0.470088149,0.138239943,-2.629657803,0.048178302,-0.053391807,0.082152031,-0.403554513,0.697001196,-1.935215389,0.062058319,-0.052017238,0.204204019,-0.31016808,0.170325215,-1.328970241,0.047878407,-0.019226375,0.23122391,-0.093467045,0.845221875,-0.516082213,0.036094087,-0.018863235,0.139071699,-0.097035297,2.515089144,-1.81695182,0.045616754,-0.022043673,0.428986194,-0.198475284,2.597181909,-0.147428169,0.095550766,-0.103832519,0.456422642,-0.051123027,1.034601034,-2.700118545,0.055160039,-0.029997893,0.279661505,-0.422783175,0
101,0.15507013,-0.300179611,0.055295505,-0.027371894,0,-0.398596701,0.625118193,-0.019769519,0.103001702,-0.041987109,0.199255938,-0.047435189,0.518184252,-0.127858573,0.097188868,-0.048754414,0.102257016,-0.126789232,1.497396895,-0.566862817,0.123680811,-0.031036908,0,-0.629723421,2.070925801,-0.037334201,0.107694989,-0.08648059,0.400613224,-0.24118423,0.646558184,-0.055628525,0.103139682,-0.045781771,0.150445892,-0.098999046,1.11E-16,-1.920689352,0.052686989,-0.016242442,0.095070555,-0.280061371,1.637541701,-0.487266957,0.097078062,-0.10579879,0.333969062,-0.267762811,0.630493934,-0.463016756,0.1217123,-0.057835172,0.21207862,-0.080637413,0.565738586,-0.282869293,0.104634776,-0.044341599,0.162443317,-0.050384694,0.070069346,-0.37176801,0.087137655,-0.036685189,0.105200439,-0.076342231,0.182665787,-0.329128493,0.093738202,-0.039411187,0.118821507,-0.085816317,0
102,0.052717971,-0.149779651,0.008870279,-0.004353366,0.024010765,-0.026075101,0.128806151,-0.075249197,0.032509831,-0.024164091,0.100104922,-0.027562447,0.144029183,-0.067282904,0.01094357,-0.02328659,0.020438891,-0.053413354,0.144289367,-0.140867199,0.046663024,-0.016336183,0,-0.342386193,0.014003915,-0.126001162,0.002007993,-0.00243904,0.012634161,-0.01010599,0.138721432,-0.089639386,0.0158081,-0.021195041,0.050744741,-0.035051841,1.334474483,-0.289824189,0.040333609,-0.0294012,0.175817404,-0.078212654,0.07020407,-0.035481247,0.003253422,-0.002317301,0.019023446,-0.002060448,0.094661514,-0.02666608,0.003280311,-0.002738767,0.02277677,-0.001557974,0.113139738,-0.059693896,0.003784665,-0.002143732,0.025024761,-0.004882967,0.350495074,-0.120737858,0.062212267,-0.05644702,0.140673299,-0.051083678,0.968181005,-0.211444763,0.067387556,-0.074662639,0.210177527,-0.081298494,0
103,0.41781122,-0.335685767,0.022967688,-0.018071097,0.068005857,-0.069434283,0.379347756,-0.368099664,0.026012366,-0.009168504,0.054734254,-0.118820975,0.962249036,-0.560380922,0.040354405,-0.033157763,0.255451356,-0.063317333,1.393167666,-0.87646039,0.019771031,-0.020979915,0.151226211,-0.182074326,0.171129812,-0.477211336,0.109460595,-0.063861609,0.186726232,-0.086346114,2.22E-16,-1.352587661,0.02273185,-0.006885776,0.106685579,-0.12786519,0.523043209,-2.13912942,0.028904588,-0.044142106,0.082165494,-0.36194278,0.246270691,-1.163675304,0.01793442,-0.028960654,0.042676321,-0.205754679,0.464974936,-0.568537786,0.016965176,-0.025254877,0.089412041,-0.103102572,0.428618028,-0.077845942,0.016240676,-0.010680894,0.040282644,-0.065877942,0.412985821,-0.438190435,0.022723559,-0.026360017,0.077824226,-0.063370554,0.488150311,-1.191223877,0.041227424,-0.027929318,0.178834801,-0.137406791,0
104,0.248109056,-0.146674562,0.027916674,-0.005977044,0.107476711,-0.077930969,0.476599211,-0.329126357,0.035875255,-0.007085469,0.176465271,-0.062249333,1.845123339,-0.339882836,0.108434923,-0.053592859,0.426238233,-0.053766639,0.186770106,-2.373356897,0.026097312,-0.050605706,0.036521394,-0.337478099,0.910718355,-0.876947425,0.055633422,-0.052912496,0.104978434,-0.23248502,0.465441387,-0.321930971,0.046688514,-0.008447705,0.187212598,-0.058434921,0.742221723,-0.217328189,0.010473677,-0.037461533,0.150988045,-0.092220468,0.628183994,-0.294469988,0.018961029,-0.003932688,0.075973957,-0.081058081,0.154354893,-1.165125498,0.028148881,-0.021377173,0.102506737,-0.161347372,0.720402806,-0.159055034,0.034246502,-0.006662758,0.155016036,-0.088925796,0.305196645,-0.638189788,0.11278797,-0.052688365,0.44091832,0,0.59305256,-0.829354305,0.086500223,-0.03300576,0.51305449,0,0
105,0.042196175,-2.252275396,0.009339902,-0.016840063,0.03001591,-0.319244605,0.4357502,-0.195531738,0.010709719,-0.002016095,0.018746091,-0.078230668,0,-2.619450005,0.000792606,-0.030282741,0,-0.396916491,0.251996481,-0.699036305,0.080763396,-5.01E-05,0.177245067,-0.137491026,0.120097161,-2.517018273,0.003873743,-0.024397602,0.021641872,-0.371454781,0.235658913,-2.757110728,0.010933915,-0.036921,0.034657022,-0.430841581,1.252161165,-0.16610768,0.056209321,-0.05172516,0.212081271,-0.054489164,1.209432292,-0.571071196,0.078793261,-0.071351286,0.269318188,-0.041027848,1.082879164,-0.942303592,0.080279816,-0.062156639,0.250969189,-0.07447288,0.764686668,-1.289805887,0.084760337,-0.084616878,0.312864094,-0.070760279,2.37952696,-0.272927302,0.113576961,-0.069422878,0.326846099,-0.193863045,1.895843325,-0.324198238,0.094448775,-0.049768251,0.273045537,-0.207041982,0
106,1.063859361,-0.17160874,0.016380472,-0.020708077,0.175332317,-0.031691809,1.195539045,-0.33706344,0.013770073,-0.024781312,0.236540732,-0.019498603,0.31907121,-0.591366849,0.045562033,-0.05434578,0,-0.333545893,0.048904045,-0.308083554,0.007373506,-0.004158007,0.065673383,-0.009581428,0.845072837,-0.211969685,0.016728172,-0.020384052,0.127996918,-0.053782123,1.531410357,-0.41396911,0.013362019,-0.045487055,0.2138125,-0.086712833,0.099103959,-0.406588324,0.081496947,0,0.171386269,-0.276989061,0.132179863,-0.181225695,0.050518477,-0.048368892,0.122255165,-0.06410123,0.584390226,-2.441700481,0.043943612,-0.109019529,0.099659702,-0.422315853,1.802796041,-0.185123897,0.120368269,-0.088640791,0.343707403,-0.2335307,0.081105514,-0.983379681,0.060319888,-0.064478582,0.197435616,-0.054315697,0.04173008,-0.571704142,0.066995434,-0.04945371,0.116087428,-0.068614147,0
107,1.181018698,-2.362037396,0.11010895,-0.099864889,0.510059519,-0.14098307,0,-1.522120809,0.129280046,-0.097785304,0.326507375,-0.080132869,1.104627901,-1.74781137,0.104888101,-0.11499514,0.347103728,-0.264353347,1.213982075,-1.215561724,0.13597971,-0.07075868,0.367031166,-0.067830752,1.658883172,-1.044439268,0.029335553,-0.035366945,0.380786093,-0.11824023,0.132407078,-1.499734152,0.11738282,-0.103140425,0.307029924,-0.136884229,1.750149191,-0.875074595,0.050307598,-0.054867587,0.374644112,-0.080759511,0.883745885,-0.837579461,0.008870945,-0.136209152,0.120927507,-0.302656768,0.185413254,-0.413137817,0,-0.020451074,0.140073055,-0.044174865,0.283648975,-0.575573021,0.073929449,-0.00164851,0,-0.400800839,0.773795619,-0.543781632,0.120666419,-0.13549767,0.288117812,-0.155547174,0.9798263,-2.240065927,0.067528337,-0.066178078,0.21011028,-0.316653625,0
108,1.396227802,-0.320434217,0.153587587,-0.087157968,0.273030232,-0.10671294,2.736488253,-1.604875085,0.210737064,-0.097198774,0.473041974,-0.24043703,0.356051907,-1.025725221,0.116072858,-0.154246338,0.35471253,-0.110513109,0.536581054,-0.159804886,0.080557334,0,0.155375023,-0.357581935,0.420042662,-4.395166862,0.031719966,-0.110620521,0.079166766,-0.641662911,0.053549939,-1.044782657,0.138026514,-0.135532919,0.414070608,0,0.638024199,-0.620600925,0.022988951,-0.041234634,0.187814713,-0.0895897,2.241279666,-0.845759652,0.060655262,-0.018666795,0.385166738,-0.286456391,0.827708605,-3.166983309,0.035718091,-0.014199299,0.105744128,-0.467713774,1.250959074,-0.478969419,0.083309721,-0.081139607,0.27272497,-0.065926392,1.794772415,-2.294515211,0.081697329,-0.061983697,0.578927479,-0.146097658,4.426222291,-1.954335182,0.044600676,-0.079994833,0.553238317,-0.314752145,0
109,1.319394186,-0.95141527,0.030938453,-0.017736025,0.217069414,-0.139825688,0.539887797,-0.542753404,0.005200672,-0.026154648,0.104540289,-0.106516872,0.224055172,-0.71782738,0.042886353,-0.035025722,0.234517726,-0.02055378,1.625888941,-0.187196687,0.033431926,-0.027114795,0.131351017,-0.168992549,0.516566504,-1.590125315,0.054571788,-0.026001914,0.259450062,-0.210894128,0.046648574,-0.887315489,0.019671708,-0.028169657,0.131336226,-0.046964542,0.294056196,-1.810631763,0.03636409,-0.024199044,0.199588564,-0.128244754,0.728916069,-0.723010495,0.061735314,-0.052003742,0.047561086,-0.208053752,1.01103734,-0.322294335,0.049455677,-0.055784681,0.13605604,-0.250454359,0.900504521,-0.266813194,0.065835111,-0.069603314,0.103001007,-0.117707634,0.413601652,-0.293600528,0.075663299,-0.049592897,0.050732292,-0.175164152,2.737240435,-0.315413647,0.017050737,-0.021946409,0.408216142,-0.012293622,0
110,1.198609592,-0.434177985,0.058066645,-0.070858183,0.046647209,-0.288301172,0.731809707,-0.173695729,0.053874728,-0.075790532,0.00857084,-0.282539124,1.071660323,-0.218117088,0.044355661,-0.117618006,0.065691524,-0.32028421,0.229342974,-0.129231852,0.048513541,-0.057794097,0,-0.262017609,1.863895951,-1.619716172,0.020396492,-0.033046464,0.459598078,-0.07794882,0.768347705,-0.21646286,0.061505973,-0.093906974,0.02973855,-0.295742228,0.627073564,-2.729152266,0.039850175,-0.024198455,0.096072808,-0.423976782,0.512927692,-0.199429741,0.032060972,-0.028019351,0.081813543,-0.100220733,2.3395248,-0.214911815,0.016443549,-0.040559574,0.340670012,-0.052530076,0.646833514,-0.327809987,0.148786721,-0.11434057,0.066790008,-0.321633926,0.694876079,-0.388219703,0.068812256,-0.072767728,0.005221445,-0.28823729,0.364062015,-0.496479078,0.05897198,-0.056851748,0.038558759,-0.205290032,0
111,3.18871563,-0.198241363,0.090015822,-0.044690451,0.387207687,-0.210958684,0.180720985,-0.109089293,0.063602933,-0.055896514,0.071513241,-0.104243866,0.085228674,-0.208349267,0.047536175,-0.059612448,0,-0.178915336,0.290470013,-0.052551385,0.042855184,0,0.051503416,-0.18654692,0.316785579,-0.241746116,0.027831465,-0.07003711,0,-0.365128705,0.197312269,-0.061267891,0.057542815,-0.059889079,0.039748086,-0.123872172,0.240031442,-0.571270559,0.016313079,-0.008510415,0.066164974,-0.075420914,0.659435758,-1.186722684,0.011121005,-0.011631492,0.005563096,-0.260238032,2.411974296,-1.324835359,0.109849737,-0.068398037,0.469269746,-0.137141705,0.90126989,-0.227398314,0.101875056,-0.089987903,0.316000984,-0.011472588,0.367397282,-0.409005901,0.056764591,-0.075615937,0.175475696,-0.065621114,0.944268081,-0.847322677,0.08365718,-0.065388563,0.25353235,-0.090931993,0
112,0.03270345,-0.049853621,0.009680842,-0.004468836,0.011765285,-0.026981374,0.811439223,-0.103497571,0.031483398,-0.01997367,0.176766614,-0.02629887,0.557896288,-0.15719457,0,-0.080427924,0.011630598,-0.241325609,1.678224012,-0.294370998,0.040982826,-0.019352529,0.322339859,-0.074591171,0.061413819,-0.02285809,0.010337409,-0.00328254,0.012700515,-0.035396938,0.378437789,-0.189218894,0.031821953,-0.046550271,0.094434644,-0.068118581,0.791386391,-0.387146532,0.049982523,-0.03777517,0.190479993,-0.140539747,1.996395617,-0.685513158,0.009079198,-0.036555132,0.360739462,-0.030258407,1.451234231,-1.178890306,0.008093252,-0.017935489,0.322637248,-0.029750996,1.292304603,-1.886656601,0.022755273,-0.044013846,0.42692592,-0.189177417,2.017165567,0,0,-0.012575918,0.287231063,0,0.687848294,-2.335055987,0.015688327,-0.044902726,0.278333961,-0.189825657,0
113,0.284022412,-0.200443284,0.01117503,-0.014968486,0,-0.087225236,0.119724496,-0.094744941,0.035792864,-0.031692958,0.095555211,-0.024988798,0.110503437,-0.086692817,0.023399817,-0.035762323,0.040288274,-0.051895286,0.177195096,-0.160267967,0.064393297,-0.029721055,0.185743943,-0.093256073,0.269214475,-1.468093556,0.047421854,-0.031149659,0.078177779,-0.229084427,0.083137004,-0.133990701,0.027777622,-0.032323132,0.066582564,-0.038820013,0.961981317,-0.022811325,0.011685669,-0.015018277,0.153053501,-0.01208542,3.299138931,-0.04153824,0.057946764,-0.026021885,0.444552295,-0.045654101,0.867573413,-0.728644445,0.01160464,-0.022446964,0.167457567,-0.060298908,2.383398036,-0.782465727,0.056749441,-0.030033275,0.404982428,-0.049256584,0.39999819,-0.422374349,0.061696135,-0.041019574,0.210760913,-0.064062833,0.057138851,-0.081755054,0.048632693,-0.041290676,0.08960819,-0.040223042,0
114,0.498724929,-1.499123857,0.119104458,-0.076424236,0.290863837,-0.162016329,0.897717697,-1.236417122,0.093974053,-0.102756168,0.184241747,-0.232067297,1.019260692,-1.003775083,0.099583548,-0.139494723,0.12241426,-0.308785127,0.378579223,-3.375303094,0.076946086,-0.103054568,0.309607841,-0.353705782,0.590908715,-0.922275496,0.125230601,-0.113276864,0.018317529,-0.389374087,0.977449148,-1.036307012,0.097622352,-0.114118883,0.164184299,-0.254923999,1.489124369,-0.996903489,0.034694408,-0.059518783,0.221127936,-0.233619256,3.865923611,-0.164008519,0.033978815,-0.048418814,0.252321118,-0.304477171,0.558849817,-0.869830875,0.139060251,-0.08225293,0.15756525,-0.220199881,0.533310115,-2.453235439,0.114435093,-0.069515461,0.326564056,-0.159893445,1.068737138,-0.81139178,0.299560796,-0.18689888,0.371364114,-0.1687629,0.974401543,-0.835665141,0.202984712,-0.126755162,0.245203901,-0.315162974,0
115,1.804427414,-0.073629677,0.02926007,-0.034997213,0.209731587,-0.085171003,1.184111916,-0.672498387,0.122120231,-0.17992066,0.306920204,-0.120206873,1.455712286,-0.973649452,0.076317657,-0.16368535,0.279836764,-0.213745682,0.490625628,-0.00725991,0.027841397,0,0.089523697,-0.097077558,0.589223775,-0.147875264,0.012302587,-0.02230265,0.087921145,-0.045253114,1.388890422,-0.799249461,0.103840831,-0.174268536,0.290956699,-0.172681269,0.462146554,-3.952115781,0.090791961,-0.101014786,0.235006214,-0.466090738,0.133262505,-0.756046435,0.005482359,-0.024847342,0.114842043,-0.113715533,0.847458111,-0.313612472,0.001552383,-0.019053118,0.108842507,-0.104680566,0.649448208,-0.887724676,0.01530497,-0.028634494,0.142749059,-0.130922119,0.584114469,-0.14880585,0.10428431,-0.087345266,0.381889167,-0.059385034,0.775895375,-0.129687485,0.125287362,-0.086107524,0.389445654,-0.125287362,0
116,0,-3.182905141,0.035928105,0,0,-0.49219248,2.288951473,-1.124774552,0.072746537,-0.053514836,0.441196783,-0.111712185,1.921090028,0,0,-0.011098791,0.277875692,0,0.572171754,-3.170550943,0.02825077,-0.007778329,0.0901442,-0.460885029,0,-3.033547376,0.039101156,-0.003325821,0,-0.488994388,1.819613948,-0.12537379,0.014379754,-0.006301053,0.248623355,-0.05223907,1.723226155,-1.025931814,0.023555994,-0.020442607,0.188842183,-0.202354388,0.157122962,-0.28439183,0.015419855,-0.014494643,0.07831281,-0.013007715,0.123771558,-0.262467297,0.015093146,-0.014465779,0.075352495,-0.009132131,0.229023534,-1.343498327,0.024647115,-0.021181256,0.106262831,-0.128149636,0.748206491,-0.519992243,0.022602417,-0.017293701,0.094486847,-0.104377111,3.692378184,-1.350454051,0.04341365,-0.042485249,0.487699278,-0.205529629,0
117,0.091808948,-0.171998962,0.036209487,-0.023788207,0.076032124,-0.032216408,0,-1.472923121,0.012191237,-0.041269265,0.232394229,-0.053184647,0.598354971,-2.070002232,0.016491174,-0.053274734,0.347854132,-0.145072587,1.297650409,-0.426695762,0.009475264,-0.084339831,0.334949218,-0.127335492,1.005696927,-2.011393854,0.029975539,-0.050574698,0.282710743,-0.218582205,1.073309843,-1.31877185,0.011298731,-0.052071909,0.3047438,-0.099508028,0.835072165,-0.511504581,0.0062588,-0.069972342,0.282609096,-0.009532245,1.682241222,-0.565791661,0.00663818,-0.060084173,0.216801975,-0.269202419,0.23313676,-1.790483803,0.056963115,-0.110292778,0.297784471,-0.240431734,0.909873803,-2.526784533,0.051022667,-0.07271135,0.218197391,-0.412448453,1.417515028,-0.311076511,0.017454129,-0.021356767,0.24466041,-0.006184729,1.393917096,-0.394507154,0.016247459,-0.027335907,0.218701682,-0.044499655,0
118,0.630306541,-0.117625289,0.023628535,-0.020778761,0.095276185,-0.050433398,0.80773557,-0.81476055,0.063197802,-0.054685911,0.245734893,-0.0463282,0.625481969,-1.250963939,0.047307655,-0.061173268,0.149793255,-0.203992918,0.120272164,-0.682996454,0.041356161,0,0.109592339,-0.204909806,0.480144686,-0.851450309,0.009982798,-0.019946663,0.129538493,-0.072344986,0.627587301,-1.006168171,0.053628122,-0.057478964,0.198596088,-0.101202005,3.3077629,-0.119151108,0.005791118,-0.067328652,0.450836052,-0.122322987,2.188891234,-1.902538809,0.023412077,-0.062803121,0.326268804,-0.284339925,1.66023246,-0.773295217,0.039636529,-0.057824232,0.164176013,-0.334858036,0.516847499,-1.555642935,0.059748665,-0.014976949,0.125069059,-0.343618123,1.821949157,-1.232378904,0.051231997,-0.038360971,0.44881535,-0.005460373,1.189341839,-1.114089871,0.039364795,-0.031804861,0.437992905,0,0
119,0.062541875,-0.044862166,0.001492388,-0.001611624,0.014749988,-0.001293126,0.623894434,-0.508583154,0.033034356,-0.028239745,0.08884854,-0.15205527,0.134815453,-0.030273097,0.000562053,-0.003549145,0.024480732,0,0.385428916,-0.025900794,0.004340088,-0.005952118,0.052165711,-0.007617816,0.113006624,-0.056394513,0.000530532,-0.001719966,0.023346675,-0.003063844,0.084017613,0,0.000953074,-0.005131343,0.018199451,0,2.047260426,-0.254572264,0.014337298,-0.0189245,0.28252256,-0.025592372,0.040774198,-0.456137853,0.009742816,-0.004327597,0.05630652,-0.014607467,0.248018512,-0.057612632,0.001547036,-0.01048083,0,-0.071706249,0.040236692,-0.654735584,0.006842445,-0.00413968,0.025131212,-0.074016645,0.27921952,-0.146130841,0.012355189,-0.002277888,0.02995709,-0.052269424,0.297889413,-0.316522036,0.039339385,-0.030910159,0.147350833,-0.040392804,0
120,0.228644909,-0.047721268,0.023932031,-0.011350058,0.029912877,-0.046646666,0.184837087,-0.087343681,0.027097544,-0.014330793,0.040772437,-0.054928427,0.497648009,-0.161737625,0.08175008,-0.042449444,0.167704304,-0.11565271,0.111833018,-0.089729297,0.025773144,-0.013166972,0.015901469,-0.067902904,0.338972038,-0.875175623,0.119540192,-0.033138108,0.40678832,-0.032383667,0.898267826,-0.097265016,0.028792615,-0.020212258,0.150144734,-0.046487881,0.270238825,-0.437963256,0.008153009,-0.032584125,0.100815397,-0.108789925,0.277673283,-0.02493422,0.022105707,-0.012541521,0.049926542,-0.03816489,0.101270839,-0.127208346,0.023521666,-0.013868049,0.017063892,-0.062444177,0.192067433,-0.093299862,0.025365473,-0.011756161,0.033454274,-0.062434033,0.119501711,-0.303302224,0.030636951,-0.010889671,0.040102886,-0.073538568,0,-1.990597381,0.041658363,0,0,-0.364526569,0
121,0.695068628,-0.24003445,0.055661456,-0.037703786,0.004290177,-0.167519033,2.428101208,-0.607890718,0.06414041,-0.057795649,0.418779908,-0.093068635,0.417891937,-0.563804039,0.03371528,-0.041519902,0.006694484,-0.261041983,0.308262923,-0.413894028,0.046903719,-0.070835859,0.199381984,-0.221074281,0.740526836,-0.537828616,0.053481277,-0.040622721,0.000857043,-0.208247079,2.510611147,-0.880425393,0.031763934,-0.057506041,0.357871959,-0.139959902,0,0,0,0,0,0,0,0,0,0,0,0,0,0,0,0,0,0,0,0,0,0,0,0,0,0,0,0,0,0,0,0,0,0,0,0,0
122,0.169232549,-0.532576936,0.020332232,-0.015189009,0.042677308,-0.101301955,0.592387514,-1.082487298,0.021451556,-0.040575176,0,-0.338934006,1.723017842,-0.479339253,0.019827427,-0.04593089,0.065031559,-0.348776956,0.617961851,-0.877858317,0.031820774,-0.022063816,0.108301894,-0.166373148,0.407029259,-0.690616449,0.025911915,-0.030038967,0.169952282,-0.070803535,1.542763358,-0.608822078,0.011886153,-0.051960366,0.032382864,-0.375748482,0.848959924,-0.785526804,0.045811526,-0.014428614,0.144693574,-0.145912901,1.456346163,-0.076350579,0.015760782,-0.008130766,0.197177382,-0.049735513,0.879453313,-0.350830436,0.072075253,-0.032282595,0.137718119,-0.237584578,1.119909797,-0.1514016,0.063060511,-0.030107648,0.107441635,-0.18927908,0.228041618,-0.275137128,0.070460872,-0.075313194,0.028786972,-0.221897723,0.321982409,-0.084902424,0.075824032,-0.064749914,0.026638325,-0.158497642,0
123,2.478600587,-0.98409739,0.012283786,-0.032060216,0.333450527,-0.140582521,0.69650375,-0.157901797,0.047116032,-0.010144398,0.066713384,-0.077215808,0.332597317,-0.123607954,0.034697511,-0.007297199,0.002896174,-0.069685301,1.346908454,-0.637385934,0.027067993,-0.035783735,0.186439794,-0.094624209,0.455020503,-1.831057903,0.020819477,-0.011792466,0.215003743,-0.119045453,0.502114266,-0.10011721,0.053144993,-0.010043569,0.048077849,-0.060091866,1.091162064,-0.149986945,0.041537421,-0.043771797,0.153425988,-0.112845702,0.325333943,-0.037121985,0.026320608,-0.007297348,0.051365486,-0.01885596,0.239742884,-0.192065535,0.028871787,-0.007661046,0.047455297,-0.041322567,0.148322824,-0.126933529,0.024183036,-0.026762725,0.051943455,-0.035742928,0.182387563,-0.139152841,0.041659812,-0.016997702,0.053180668,-0.028037951,0.45579322,-0.054885926,0.027742083,-0.009111041,0.048474717,-0.048172604,0
124,1.128596877,-0.109273774,0.012588477,-0.047175252,0.235190366,-0.064948781,0.25703437,-0.194706338,0.012863987,-0.016073883,0.023504853,-0.078188214,1.077698763,-0.099281373,0.006276016,-0.010121482,0.157332418,-0.013789111,0.234591916,-0.292503325,0.013859622,-0.016102834,0.032172672,-0.091591612,2.627870059,-0.176860164,0.024529518,-0.008348772,0.199022714,-0.182460938,0.218734419,-0.114617991,0.011183333,-0.005873698,0.027037366,-0.05026943,0.101865717,-0.033197349,0.001253896,-0.002954641,0.022580313,-0.004721895,0.075577107,-0.14811984,0.001525368,-0.000716732,0.026131942,-0.006398991,0.098879699,-0.10983325,0.015804582,-0.013566047,0.024119447,-0.032853382,0.094796967,-0.02151122,0.008078946,-0.00560715,0.025916547,-0.003748988,0.081360416,-0.253484274,0.005350576,-0.001719114,0.02398405,-0.035123804,0.093315871,-0.085235352,0.001938814,-0.000662362,0.018755924,-0.007509359,0
125,0.589554331,-0.309172746,0.011253418,-0.016564407,0.076131905,-0.072916097,0.053904892,-0.20076751,0.007306809,-0.005242637,0.000437351,-0.047875811,0.223449905,-0.281121361,0.01020014,-0.007228603,0.0267751,-0.060971861,0.434266982,-0.590200169,0.022666169,-0.021071753,0.166664629,-0.000316744,0.36208294,-0.309960331,0.009894234,-0.009435178,0.046459488,-0.063759763,0.256779515,-0.19012695,0.008885079,-0.005008173,0.025573207,-0.045299139,0.686639988,-0.963571865,0.016149261,-0.04738033,0.130062627,-0.185640976,1.109235084,-2.053610643,0.017910885,-0.044424125,0.24907863,-0.216564676,0,0,0,0,0,0,3.162080704,-0.018163289,0.04915788,-0.04250014,0.530295706,0,1.039180476,-0.755431183,0.055648767,-0.022132862,0.268768233,-0.11385337,3.117897342,-1.286622171,0.048950577,-0.016358142,0.481574066,-0.094199802,0
126,1.43748799,-0.947116267,0.045719663,-0.025824737,0.329567622,-0.042359249,0.821272678,-1.599030347,0.109830101,-0.044141998,0.430634966,0,1.281802742,-1.694952012,0.031504426,-0.030408258,0.069825427,-0.34567672,1.073578899,-2.173303683,0.089493922,-0.093960728,0.398221909,-0.078059116,1.039459096,-0.715986472,0.012843778,-0.022965468,0.129536391,-0.154853005,1.021684731,-1.31170355,0.036978934,-0.039811235,0.305418508,-0.067904037,1.129556781,-2.08190348,0.066056153,-0.017499913,0.044270822,-0.388949673,1.769088897,-1.602548591,0.118578361,-0.077039824,0.542138172,-0.190348313,1.579304417,-1.597316623,0.113129189,-0.087569395,0.524289557,-0.222942698,1.873593329,-1.817322004,0.109561909,-0.091084551,0.537512926,-0.141097925,1.19097083,-2.381941659,0.107415978,-0.076170088,0.506721934,-0.013107963,0,-3.557141399,0.05948434,-0.046577723,0.438397949,-0.064890314,0
127,0.549903464,-0.372790806,0.022918389,-0.012296698,0.071445536,-0.118257896,2.77218263,-0.12265684,0.140412893,-0.033465471,0.52921902,-0.047089067,1.068668945,-0.358654097,0.086743519,-0.113537085,0.190369993,-0.184133886,0.259769854,-0.196151076,0.022623731,-0.010476412,0.039719648,-0.075146732,0.426515802,-0.125439736,0.02266056,-0.014563065,0.029662237,-0.105907051,0.838508351,-0.150679638,0.136508183,-0.072967286,0.440232398,0,2.693105109,-0.237516169,0.077250237,-0.018784414,0.554196195,-0.23244213,0.721469139,-0.159860998,0.027670047,-0.01508686,0.081878903,-0.101558993,0.731805062,-0.129478876,0.021645132,-0.010832082,0.093300502,-0.070385893,0.684133715,-0.231097252,0.027742305,-0.011367981,0.094377736,-0.113399548,0.566185165,-0.143780068,0.033554452,-0.01312402,0.074063215,-0.10234855,0.641946114,-3.218845556,0.157570276,-0.033915961,0.609480386,-0.076727848,0
128,0.642023512,-0.328088337,0.025600389,-0.007250571,0.128340501,-0.101256946,1.422498551,-0.137328137,0.051193781,-0.013946464,0.177479926,-0.12962148,2.412025093,-0.213990291,0.04226545,-0.05329355,0.274347181,-0.120741187,0.523885352,-0.715024289,0.019615885,-0.013091926,0.004164906,-0.180703372,0.501370758,-0.817831,0.026525524,-0.029999385,0.145603594,-0.128856959,2.516564162,-0.195019211,0.048712144,-0.034153836,0.285559915,-0.116093715,3.593118133,-0.143132567,0.055985962,-0.011776408,0.449641981,-0.114263383,4.10636976,-0.662695374,0.051474084,-0.07009715,0.619036739,-0.190706901,2.572290429,-1.462782052,0.046757882,-0.043044858,0.371925809,-0.185564027,0.892395144,-0.089050769,0.013847151,-0.014292134,0.138562478,-0.027178968,0.683575031,-0.368507033,0.055248084,-0.011466859,0.230828426,-0.065592527,0.207545029,-3.554066468,0.035367652,-0.020135579,0.05363542,-0.492273907,0
129,0.060009839,-0.57199322,0.038165494,-0.035059957,0.153579675,-0.05326107,0.461165446,-0.230582723,0,-0.049711986,0.187669929,-0.041572146,1.004637061,-0.018761125,0.001814406,-0.029089224,0,-0.351530037,0.82438632,-0.101591946,0.02259929,-0.011606408,0.138008232,-0.06188549,0.397896028,-0.058667363,0.040519417,-0.020463898,0.168189571,0,0.809733799,-0.894610835,0,-0.057948177,0.238139342,-0.15488436,0.647867344,-0.14370937,0.010856325,-0.005640823,0.143111179,0,0.24589578,-0.068551061,0.03081109,-0.057184084,0.069500867,-0.069214671,0.254343256,-0.074907935,0.051136402,-0.069595196,0,-0.358095426,0.340401583,-0.076411008,0.013489076,-0.037658646,0.141491933,-0.017188397,0.634166339,-0.678287447,0.039253251,-0.039601631,0.167962987,-0.064102668,0.634544226,-0.106196529,0.03371782,-0.038957395,0.15678277,0,0
130,0.762693742,-0.879113865,0.029144213,-0.052174539,0,-0.349370069,0.463029786,-0.155458439,0.025188389,-0.02163494,0.130473529,-0.028952093,0.44386513,-0.095048746,0.027788532,-0.019857674,0.151955143,-0.025399753,0.465844357,-1.564899604,0.031178679,-0.045479123,0.097309314,-0.275864601,0.486427043,-0.968857025,0.025026254,-0.026364893,0.088059355,-0.147411855,0.468466081,-0.101068834,0.026161341,-0.020014836,0.13634024,-0.016521351,0.579557116,-4.412172209,0.047657096,-0.032674613,0.328257889,-0.369348585,0.274589125,-0.612125224,0.023825741,-0.073213932,0.105690659,-0.308295474,0.313107869,-0.665267608,0,-0.16305611,0.033616819,-0.482702452,2.226225805,-0.664686047,0.015399707,-0.049022691,0.252777993,-0.293474801,1.533051194,-1.415513675,0.038823025,-0.075556131,0.071569778,-0.503606636,0.674410383,-0.565537721,0.041503952,-0.017353589,0.18834384,-0.088804384,0
131,0.685068755,-0.534783731,0.017144733,-0.014307301,0.088757427,-0.085678174,1.60014892,-0.471856584,0.043966254,-0.079253412,0.245781046,-0.107179339,0.653245367,-0.509996178,0.053704724,-0.087967221,0.179966228,-0.120519787,0.703209934,-0.671716464,0.057483422,-0.062711033,0.257726969,-0.106673289,0.763094756,-0.727889941,0.047192473,-0.078563621,0.122437423,-0.261432372,0.459020994,-0.547548232,0.051484449,-0.083908663,0.227776894,-0.054382764,0.375095596,-2.171652474,0.015525009,-0.015493678,0.073194983,-0.285252489,1.298194921,-0.213883939,0.016786295,-0.006582556,0.201745715,-0.036670949,0,0,0,0,0,0,0.070788837,-0.534498477,0.013601248,-0.011735705,0.051326859,-0.059642889,0.568437564,-0.250765599,0.026710401,-0.013867321,0.069341072,-0.097708269,0.172430185,-1.172519822,0.021470883,-0.012378658,0.068637441,-0.135884666,0
132,1.361430694,-0.139802087,0.098962462,-0.020890779,0.276780789,-0.139718151,1.091435728,-0.224596811,0.041122566,-0.057453076,0.073376861,-0.189177591,1.857325396,-0.152669284,0.033433138,-0.044780828,0,-0.306845616,0.099187468,-0.511812232,0.02802678,-0.013021238,0.051485731,-0.105970836,0.014808664,-0.513539425,0.031021735,-0.046023515,0.052265017,-0.078028401,1.652073117,0,0.026836551,-0.050170509,0.011624246,-0.252084103,1.130967345,-0.402043815,0.021557315,-0.030793072,0.013693082,-0.231150791,0.270867461,-0.516495663,0.036363127,-0.069390844,0.189365986,-0.085972339,0.272531737,-0.393402216,0.036279429,-0.087474702,0.147035346,-0.123993357,0.179791496,-0.529622929,0.037197548,-0.100245918,0.116697347,-0.173934765,0,0,0,0,0,0,1.341244953,-1.013362352,0.038570596,-0.08158806,0.166837028,-0.22109511,0
133,0.770111474,-0.223051643,0.01960859,-0.010330285,0.080579222,-0.092977107,0.251171172,-0.286687921,0.128519676,-0.09947295,0.375902905,0,0.389857621,-0.12922606,0.076591159,-0.111827893,0.172329605,-0.123656171,2.157597908,-1.128201038,0.105928419,-0.067159716,0.347677644,-0.475746396,0.154866532,-0.193786498,0.017475597,-0.012237215,0.022183038,-0.066112114,0.19423868,-0.171201346,0.10009721,-0.10759986,0.260107741,0,0.957652375,-0.478826187,0.117915548,-0.150623135,0.371190514,-0.11378896,0.249400681,-0.197602676,0.013780071,-0.006238854,0.048692602,-0.048913227,0.217953856,-0.129012218,0.016774285,-0.00637198,0.004806364,-0.088197274,4.019534353,-0.07140921,0.059033263,-0.038184214,0.527656214,-0.057269293,3.367040607,-0.065773268,0.134877079,-0.042515957,0.521394848,-0.04235492,1.110541957,-1.786656437,0.138844645,-0.052667004,0.506141753,-0.006704058,0
134,1.291384353,-3.066608669,0.112360592,-0.036986056,0.330331569,-0.562499692,0.200219041,-0.431478881,0.119568031,-0.043585876,0.229509716,-0.279425269,1.828611371,-2.677218722,0.097051108,-0.041998773,0.20977937,-0.639135788,0.355549727,-0.272515311,0.025687762,-0.019254797,0.099646766,-0.033213268,0.95245695,-0.583640198,0.035186308,-0.026599251,0.059783458,-0.236479159,1.837539195,-2.698952211,0.110923009,-0.042999447,0.213561688,-0.660345063,0.473277853,-0.234679204,0.031375734,-0.021929495,0.117862246,-0.047027775,0.098118907,-0.36569339,0.000944483,-0.005224653,0.064200458,-0.002259064,0.207534527,-0.010081773,0.001048798,-0.00198494,0.028414764,-0.002900783,0.948881484,-1.719040742,0.051672958,-0.051446866,0.060529304,-0.396625299,2.002626032,-0.763231245,0.094968597,0,0.223877945,-0.493303101,0.280892029,-1.813399006,0.06124924,-0.05103178,0.15030836,-0.269394696,0
135,1.418285412,-0.227269805,0.018005437,-0.010868249,0.193950268,-0.044644099,1.52143523,-0.32739176,0.011452748,-0.014937218,0.210799963,-0.057319429,1.167184986,-0.657106153,0.02110713,-0.046670837,0.220322815,-0.096314858,0.514452587,-0.053586234,0.01118504,-0.011258002,0.069235902,-0.036088745,1.331272702,-1.050740566,0.015713741,-0.011175468,0.203262049,-0.140958543,2.313616829,-0.605622568,0.052256292,-0.076502031,0.376887576,-0.220306329,1.503012606,-1.818843465,0.027553669,-0.009172279,0.340212284,-0.186744751,0.84185274,-0.468713026,0.000138186,-0.022970992,0.295180077,0,1.014577527,-1.2105946,0,-0.016466189,0.254503426,-0.081180717,1.09691951,-0.439326845,0.031722249,-0.073786397,0.164546788,-0.297352068,1.058448895,-0.349584399,0.092798629,-0.086248871,0.198482866,-0.13044649,0.529735794,-1.03511927,0.00918342,-0.012306956,0.078271377,-0.15245559,0
